326.0
326.0
325.0
322.0
320.0
318.0
318.0
316.0
315.0
314.0
313.0
314.0
316.0
318.0
320.0
322.0
323.0
326.0
330.0
321.0
320.0
329.0
345.0
350.0
340.0
329.0
316.0
304.0
320.0
328.0
319.0
308.0
304.0
311.0
320.0
313.0
318.0
317.0
310.0
320.0
333.0
322.0
298.0
307.0
362.0
439.0
554.0
649.0
648.0
518.0
245.0
146.0
252.0
360.0
370.0
331.0
304.0
320.0
335.0
326.0
317.0
320.0
327.0
325.0
332.0
336.0
331.0
327.0
334.0
336.0
337.0
341.0
345.0
348.0
342.0
343.0
349.0
351.0
349.0
361.0
370.0
372.0
376.0
373.0
371.0
389.0
405.0
398.0
389.0
394.0
403.0
400.0
389.0
383.0
376.0
363.0
341.0
337.0
340.0
333.0
311.0
294.0
297.0
310.0
310.0
304.0
307.0
305.0
299.0
298.0
304.0
306.0
306.0
306.0
305.0
303.0
307.0
307.0
306.0
306.0
306.0
306.0
317.0
318.0
311.0
308.0
316.0
308.0
299.0
321.0
327.0
325.0
314.0
305.0
308.0
313.0
319.0
317.0
305.0
294.0
313.0
340.0
328.0
314.0
306.0
317.0
325.0
317.0
318.0
325.0
322.0
328.0
336.0
337.0
335.0
322.0
308.0
313.0
319.0
313.0
305.0
308.0
306.0
307.0
320.0
319.0
302.0
300.0
326.0
331.0
315.0
301.0
303.0
333.0
384.0
493.0
625.0
649.0
595.0
378.0
184.0
188.0
305.0
364.0
340.0
304.0
313.0
329.0
332.0
323.0
322.0
336.0
323.0
314.0
335.0
336.0
321.0
334.0
347.0
343.0
334.0
337.0
341.0
350.0
351.0
342.0
345.0
357.0
358.0
360.0
364.0
370.0
376.0
382.0
384.0
381.0
382.0
387.0
392.0
397.0
393.0
389.0
386.0
368.0
366.0
363.0
347.0
321.0
317.0
320.0
320.0
319.0
313.0
301.0
296.0
301.0
309.0
309.0
300.0
297.0
309.0
314.0
310.0
307.0
306.0
310.0
321.0
313.0
307.0
310.0
315.0
314.0
312.0
310.0
311.0
318.0
323.0
320.0
310.0
311.0
330.0
320.0
304.0
299.0
318.0
332.0
315.0
303.0
323.0
334.0
327.0
310.0
306.0
312.0
327.0
323.0
305.0
311.0
319.0
330.0
327.0
325.0
326.0
334.0
343.0
351.0
341.0
322.0
312.0
309.0
316.0
316.0
313.0
311.0
313.0
319.0
312.0
307.0
312.0
313.0
312.0
320.0
321.0
317.0
311.0
327.0
381.0
500.0
629.0
649.0
611.0
373.0
156.0
171.0
324.0
403.0
359.0
306.0
300.0
318.0
333.0
327.0
317.0
321.0
336.0
334.0
324.0
315.0
330.0
349.0
334.0
324.0
330.0
335.0
348.0
345.0
339.0
340.0
351.0
358.0
356.0
355.0
360.0
371.0
383.0
389.0
382.0
376.0
386.0
395.0
396.0
392.0
399.0
405.0
397.0
373.0
349.0
349.0
355.0
335.0
321.0
311.0
306.0
306.0
304.0
309.0
311.0
298.0
304.0
304.0
309.0
300.0
306.0
309.0
306.0
311.0
316.0
312.0
305.0
312.0
314.0
302.0
308.0
322.0
317.0
308.0
306.0
314.0
324.0
324.0
310.0
309.0
308.0
310.0
319.0
317.0
317.0
316.0
307.0
303.0
308.0
317.0
328.0
319.0
309.0
307.0
311.0
314.0
313.0
321.0
327.0
320.0
319.0
319.0
334.0
354.0
347.0
322.0
307.0
306.0
315.0
322.0
311.0
302.0
300.0
299.0
316.0
313.0
308.0
310.0
307.0
312.0
315.0
315.0
310.0
308.0
334.0
400.0
535.0
649.0
648.0
547.0
281.0
130.0
207.0
358.0
388.0
330.0
287.0
297.0
335.0
339.0
312.0
303.0
317.0
328.0
327.0
322.0
320.0
320.0
335.0
330.0
335.0
339.0
338.0
349.0
349.0
356.0
331.0
324.0
356.0
374.0
362.0
350.0
359.0
371.0
368.0
381.0
388.0
384.0
381.0
387.0
396.0
395.0
384.0
380.0
372.0
359.0
344.0
324.0
324.0
316.0
296.0
287.0
310.0
314.0
296.0
284.0
302.0
307.0
299.0
293.0
314.0
313.0
296.0
288.0
301.0
329.0
321.0
302.0
300.0
302.0
312.0
318.0
306.0
293.0
297.0
317.0
331.0
319.0
305.0
301.0
310.0
316.0
314.0
309.0
312.0
314.0
313.0
306.0
305.0
315.0
316.0
307.0
307.0
318.0
314.0
310.0
306.0
314.0
321.0
311.0
305.0
321.0
329.0
333.0
334.0
324.0
304.0
292.0
306.0
326.0
315.0
300.0
297.0
308.0
308.0
304.0
309.0
306.0
296.0
321.0
332.0
309.0
296.0
315.0
349.0
430.0
564.0
648.0
637.0
461.0
215.0
151.0
258.0
354.0
348.0
310.0
311.0
320.0
323.0
322.0
326.0
317.0
315.0
319.0
326.0
325.0
319.0
323.0
331.0
336.0
328.0
323.0
331.0
335.0
332.0
337.0
354.0
361.0
367.0
358.0
361.0
359.0
354.0
370.0
392.0
379.0
385.0
388.0
383.0
373.0
382.0
380.0
384.0
380.0
358.0
342.0
338.0
338.0
337.0
329.0
314.0
301.0
303.0
304.0
301.0
316.0
309.0
300.0
306.0
313.0
308.0
304.0
308.0
319.0
314.0
311.0
327.0
322.0
311.0
313.0
316.0
313.0
319.0
339.0
322.0
292.0
328.0
334.0
295.0
306.0
322.0
317.0
322.0
330.0
327.0
297.0
306.0
314.0
310.0
317.0
333.0
326.0
330.0
314.0
312.0
323.0
334.0
325.0
343.0
346.0
321.0
308.0
318.0
329.0
312.0
288.0
308.0
329.0
293.0
283.0
320.0
328.0
312.0
302.0
320.0
323.0
303.0
303.0
322.0
352.0
437.0
584.0
649.0
646.0
491.0
211.0
120.0
268.0
395.0
366.0
310.0
289.0
316.0
344.0
335.0
318.0
309.0
322.0
329.0
326.0
328.0
331.0
336.0
328.0
326.0
322.0
341.0
355.0
332.0
330.0
349.0
360.0
353.0
352.0
360.0
364.0
377.0
384.0
366.0
358.0
377.0
399.0
403.0
386.0
386.0
400.0
402.0
392.0
375.0
360.0
357.0
342.0
327.0
317.0
315.0
314.0
303.0
295.0
299.0
316.0
316.0
301.0
291.0
302.0
308.0
312.0
306.0
298.0
305.0
310.0
307.0
312.0
317.0
307.0
310.0
321.0
322.0
309.0
306.0
317.0
318.0
308.0
315.0
331.0
331.0
306.0
297.0
310.0
325.0
331.0
324.0
307.0
309.0
325.0
331.0
319.0
303.0
310.0
323.0
331.0
334.0
325.0
328.0
333.0
336.0
339.0
333.0
316.0
311.0
324.0
314.0
292.0
299.0
316.0
314.0
308.0
310.0
322.0
322.0
313.0
318.0
322.0
318.0
311.0
313.0
360.0
473.0
618.0
649.0
631.0
424.0
177.0
158.0
304.0
395.0
364.0
314.0
307.0
315.0
314.0
329.0
331.0
324.0
324.0
333.0
325.0
315.0
327.0
343.0
338.0
328.0
326.0
334.0
336.0
343.0
349.0
345.0
350.0
352.0
349.0
353.0
360.0
367.0
377.0
384.0
381.0
378.0
382.0
382.0
389.0
397.0
407.0
400.0
383.0
366.0
359.0
357.0
344.0
330.0
322.0
325.0
315.0
299.0
294.0
307.0
316.0
314.0
300.0
294.0
307.0
316.0
302.0
298.0
317.0
315.0
301.0
301.0
311.0
322.0
317.0
310.0
306.0
310.0
317.0
316.0
314.0
320.0
318.0
307.0
312.0
321.0
312.0
308.0
316.0
313.0
308.0
316.0
322.0
312.0
308.0
315.0
320.0
314.0
313.0
312.0
313.0
319.0
326.0
329.0
334.0
338.0
332.0
316.0
304.0
321.0
316.0
302.0
300.0
312.0
307.0
302.0
307.0
317.0
313.0
301.0
311.0
317.0
312.0
314.0
297.0
318.0
385.0
507.0
638.0
648.0
588.0
340.0
146.0
178.0
325.0
385.0
339.0
297.0
314.0
328.0
318.0
310.0
314.0
318.0
318.0
314.0
326.0
327.0
319.0
317.0
331.0
332.0
333.0
332.0
330.0
335.0
343.0
336.0
345.0
358.0
358.0
355.0
370.0
373.0
370.0
370.0
373.0
373.0
381.0
390.0
388.0
385.0
392.0
391.0
388.0
379.0
358.0
349.0
330.0
320.0
317.0
312.0
306.0
308.0
305.0
308.0
306.0
298.0
306.0
314.0
308.0
302.0
299.0
302.0
310.0
317.0
314.0
308.0
306.0
305.0
307.0
318.0
322.0
311.0
308.0
315.0
323.0
322.0
314.0
309.0
305.0
314.0
326.0
322.0
313.0
310.0
312.0
314.0
315.0
317.0
317.0
311.0
313.0
322.0
325.0
327.0
321.0
323.0
341.0
348.0
333.0
316.0
308.0
306.0
313.0
312.0
305.0
308.0
310.0
301.0
311.0
317.0
312.0
313.0
317.0
320.0
319.0
308.0
305.0
318.0
366.0
486.0
634.0
649.0
619.0
383.0
161.0
168.0
310.0
385.0
348.0
304.0
300.0
319.0
322.0
322.0
317.0
315.0
320.0
325.0
321.0
316.0
329.0
335.0
332.0
317.0
326.0
353.0
356.0
334.0
325.0
337.0
350.0
346.0
361.0
369.0
355.0
361.0
376.0
375.0
378.0
385.0
384.0
388.0
387.0
387.0
394.0
397.0
381.0
361.0
361.0
350.0
328.0
318.0
317.0
315.0
307.0
313.0
312.0
302.0
297.0
298.0
305.0
303.0
297.0
300.0
311.0
311.0
306.0
308.0
305.0
306.0
308.0
316.0
310.0
311.0
319.0
317.0
306.0
301.0
313.0
324.0
326.0
313.0
303.0
312.0
322.0
311.0
308.0
324.0
324.0
313.0
304.0
306.0
318.0
325.0
318.0
302.0
310.0
323.0
326.0
322.0
322.0
334.0
345.0
335.0
316.0
307.0
309.0
315.0
311.0
303.0
300.0
304.0
310.0
311.0
307.0
300.0
308.0
323.0
320.0
316.0
306.0
300.0
319.0
372.0
483.0
620.0
649.0
618.0
386.0
150.0
156.0
319.0
399.0
350.0
294.0
293.0
323.0
331.0
318.0
311.0
312.0
318.0
322.0
326.0
323.0
323.0
320.0
322.0
330.0
339.0
337.0
337.0
342.0
337.0
334.0
345.0
344.0
348.0
354.0
360.0
372.0
374.0
372.0
369.0
373.0
381.0
391.0
394.0
390.0
383.0
384.0
385.0
371.0
354.0
343.0
336.0
322.0
319.0
322.0
301.0
290.0
299.0
317.0
312.0
296.0
291.0
295.0
306.0
310.0
305.0
302.0
309.0
313.0
309.0
311.0
307.0
307.0
316.0
316.0
315.0
317.0
305.0
306.0
314.0
316.0
312.0
310.0
318.0
319.0
317.0
314.0
319.0
318.0
319.0
321.0
310.0
307.0
314.0
324.0
315.0
294.0
303.0
333.0
337.0
324.0
319.0
333.0
356.0
351.0
324.0
310.0
312.0
313.0
311.0
301.0
305.0
312.0
313.0
308.0
309.0
316.0
326.0
322.0
311.0
310.0
315.0
312.0
315.0
350.0
424.0
560.0
649.0
647.0
509.0
238.0
133.0
249.0
387.0
384.0
314.0
288.0
312.0
338.0
332.0
320.0
317.0
319.0
328.0
334.0
328.0
326.0
327.0
326.0
330.0
336.0
340.0
334.0
334.0
348.0
358.0
353.0
347.0
352.0
364.0
362.0
366.0
376.0
375.0
375.0
375.0
381.0
393.0
394.0
390.0
394.0
389.0
387.0
383.0
360.0
346.0
343.0
342.0
331.0
316.0
306.0
309.0
308.0
308.0
306.0
300.0
301.0
308.0
305.0
301.0
303.0
309.0
314.0
314.0
306.0
306.0
315.0
317.0
314.0
315.0
312.0
311.0
315.0
316.0
320.0
321.0
323.0
313.0
310.0
313.0
317.0
313.0
310.0
318.0
319.0
315.0
314.0
311.0
312.0
314.0
308.0
318.0
317.0
315.0
314.0
318.0
322.0
322.0
329.0
339.0
339.0
336.0
336.0
321.0
302.0
308.0
318.0
306.0
298.0
309.0
311.0
304.0
303.0
304.0
307.0
317.0
320.0
315.0
308.0
308.0
304.0
328.0
387.0
516.0
646.0
648.0
585.0
332.0
148.0
184.0
331.0
385.0
341.0
291.0
292.0
323.0
334.0
326.0
314.0
315.0
324.0
320.0
315.0
316.0
330.0
338.0
334.0
320.0
320.0
336.0
341.0
343.0
344.0
343.0
347.0
352.0
361.0
353.0
348.0
358.0
374.0
375.0
370.0
380.0
394.0
389.0
378.0
380.0
389.0
394.0
381.0
371.0
355.0
337.0
335.0
321.0
315.0
310.0
303.0
309.0
306.0
296.0
297.0
305.0
302.0
300.0
300.0
298.0
299.0
304.0
304.0
313.0
315.0
303.0
304.0
312.0
308.0
304.0
310.0
317.0
314.0
305.0
308.0
311.0
311.0
309.0
306.0
309.0
322.0
317.0
303.0
304.0
313.0
316.0
311.0
307.0
310.0
315.0
308.0
306.0
317.0
320.0
319.0
316.0
325.0
340.0
341.0
323.0
305.0
304.0
310.0
308.0
301.0
302.0
309.0
310.0
300.0
296.0
307.0
308.0
308.0
303.0
307.0
310.0
303.0
303.0
332.0
405.0
540.0
649.0
643.0
495.0
248.0
149.0
231.0
329.0
354.0
325.0
303.0
301.0
320.0
317.0
316.0
320.0
319.0
316.0
314.0
317.0
323.0
325.0
322.0
323.0
332.0
335.0
333.0
330.0
332.0
339.0
344.0
349.0
347.0
351.0
354.0
354.0
363.0
376.0
377.0
372.0
372.0
379.0
378.0
382.0
396.0
400.0
378.0
355.0
356.0
362.0
354.0
334.0
320.0
320.0
321.0
313.0
312.0
311.0
306.0
305.0
310.0
312.0
309.0
306.0
308.0
312.0
312.0
307.0
312.0
318.0
315.0
311.0
316.0
322.0
317.0
318.0
316.0
316.0
318.0
318.0
316.0
312.0
313.0
317.0
322.0
321.0
310.0
305.0
316.0
327.0
323.0
308.0
312.0
320.0
316.0
317.0
319.0
314.0
315.0
316.0
319.0
319.0
321.0
337.0
334.0
331.0
335.0
338.0
330.0
314.0
312.0
322.0
321.0
308.0
306.0
308.0
316.0
318.0
316.0
310.0
312.0
318.0
316.0
309.0
306.0
310.0
335.0
416.0
551.0
649.0
648.0
533.0
261.0
136.0
236.0
368.0
381.0
320.0
294.0
314.0
328.0
326.0
320.0
318.0
319.0
325.0
325.0
327.0
331.0
331.0
334.0
328.0
325.0
336.0
346.0
347.0
344.0
347.0
351.0
353.0
351.0
354.0
365.0
373.0
367.0
368.0
380.0
388.0
387.0
386.0
380.0
382.0
400.0
402.0
389.0
374.0
364.0
359.0
347.0
329.0
316.0
319.0
315.0
308.0
313.0
306.0
297.0
305.0
314.0
311.0
302.0
306.0
312.0
311.0
307.0
306.0
308.0
312.0
313.0
315.0
315.0
319.0
320.0
314.0
313.0
323.0
322.0
319.0
318.0
314.0
316.0
317.0
318.0
317.0
315.0
312.0
311.0
315.0
316.0
314.0
314.0
319.0
320.0
312.0
311.0
317.0
320.0
324.0
317.0
328.0
350.0
346.0
330.0
315.0
308.0
314.0
322.0
322.0
304.0
294.0
312.0
323.0
316.0
307.0
308.0
317.0
320.0
315.0
316.0
313.0
315.0
328.0
375.0
492.0
634.0
650.0
606.0
365.0
154.0
172.0
317.0
388.0
347.0
300.0
302.0
327.0
330.0
317.0
312.0
317.0
318.0
324.0
333.0
324.0
318.0
328.0
335.0
337.0
332.0
333.0
342.0
338.0
332.0
345.0
360.0
354.0
354.0
361.0
367.0
372.0
370.0
371.0
380.0
385.0
391.0
390.0
387.0
385.0
381.0
385.0
388.0
373.0
353.0
341.0
335.0
328.0
317.0
314.0
311.0
299.0
299.0
311.0
308.0
298.0
293.0
304.0
309.0
300.0
302.0
308.0
313.0
312.0
314.0
318.0
315.0
311.0
310.0
316.0
319.0
321.0
313.0
312.0
312.0
320.0
319.0
317.0
314.0
322.0
321.0
313.0
320.0
319.0
320.0
317.0
314.0
314.0
314.0
317.0
315.0
315.0
322.0
324.0
318.0
318.0
327.0
326.0
332.0
345.0
337.0
316.0
308.0
311.0
318.0
312.0
301.0
308.0
316.0
313.0
308.0
302.0
312.0
320.0
319.0
316.0
314.0
312.0
309.0
323.0
380.0
500.0
642.0
649.0
603.0
359.0
156.0
181.0
323.0
387.0
349.0
302.0
303.0
326.0
333.0
321.0
312.0
316.0
324.0
328.0
328.0
320.0
319.0
331.0
337.0
331.0
322.0
328.0
348.0
348.0
339.0
345.0
348.0
349.0
357.0
358.0
363.0
376.0
373.0
370.0
382.0
382.0
380.0
381.0
389.0
389.0
390.0
394.0
387.0
367.0
345.0
339.0
336.0
328.0
314.0
311.0
309.0
304.0
303.0
306.0
302.0
300.0
303.0
301.0
307.0
312.0
305.0
304.0
304.0
297.0
307.0
327.0
320.0
307.0
305.0
316.0
317.0
311.0
310.0
311.0
313.0
314.0
315.0
316.0
312.0
304.0
318.0
318.0
308.0
313.0
317.0
312.0
309.0
306.0
308.0
312.0
314.0
313.0
318.0
323.0
318.0
316.0
329.0
344.0
339.0
315.0
310.0
312.0
306.0
304.0
298.0
308.0
323.0
320.0
301.0
301.0
313.0
326.0
311.0
308.0
310.0
320.0
315.0
306.0
361.0
477.0
615.0
649.0
619.0
395.0
169.0
166.0
301.0
375.0
347.0
311.0
311.0
316.0
319.0
312.0
320.0
324.0
312.0
314.0
327.0
330.0
311.0
318.0
336.0
345.0
338.0
322.0
326.0
341.0
349.0
343.0
342.0
345.0
354.0
357.0
358.0
364.0
377.0
374.0
381.0
385.0
386.0
383.0
390.0
391.0
388.0
381.0
373.0
362.0
359.0
350.0
338.0
331.0
313.0
305.0
308.0
308.0
302.0
301.0
298.0
300.0
301.0
304.0
305.0
301.0
295.0
298.0
305.0
309.0
313.0
307.0
309.0
310.0
311.0
312.0
299.0
312.0
320.0
314.0
307.0
309.0
322.0
329.0
312.0
299.0
310.0
325.0
322.0
306.0
300.0
313.0
321.0
320.0
311.0
311.0
322.0
326.0
330.0
333.0
337.0
330.0
312.0
302.0
313.0
316.0
304.0
293.0
303.0
322.0
313.0
298.0
299.0
318.0
318.0
306.0
303.0
306.0
308.0
312.0
329.0
402.0
532.0
649.0
647.0
534.0
275.0
142.0
227.0
332.0
351.0
329.0
313.0
311.0
318.0
322.0
318.0
314.0
322.0
323.0
321.0
323.0
328.0
326.0
327.0
324.0
330.0
333.0
337.0
336.0
340.0
342.0
344.0
343.0
348.0
358.0
356.0
354.0
366.0
376.0
376.0
371.0
365.0
382.0
400.0
393.0
385.0
379.0
377.0
378.0
364.0
352.0
340.0
333.0
331.0
317.0
306.0
309.0
314.0
314.0
315.0
309.0
300.0
304.0
316.0
312.0
305.0
308.0
316.0
315.0
310.0
312.0
316.0
317.0
310.0
313.0
320.0
318.0
320.0
316.0
310.0
313.0
324.0
320.0
310.0
314.0
325.0
326.0
316.0
305.0
308.0
322.0
333.0
322.0
306.0
307.0
311.0
316.0
322.0
325.0
320.0
320.0
328.0
335.0
346.0
340.0
317.0
304.0
308.0
318.0
317.0
305.0
302.0
304.0
307.0
318.0
316.0
306.0
309.0
313.0
311.0
309.0
308.0
307.0
322.0
371.0
473.0
604.0
649.0
625.0
398.0
158.0
150.0
317.0
394.0
346.0
296.0
311.0
326.0
327.0
317.0
314.0
321.0
330.0
327.0
323.0
324.0
324.0
320.0
326.0
335.0
341.0
331.0
330.0
334.0
346.0
346.0
342.0
351.0
355.0
356.0
360.0
358.0
361.0
375.0
391.0
386.0
373.0
381.0
392.0
389.0
385.0
387.0
385.0
364.0
346.0
339.0
338.0
332.0
316.0
302.0
303.0
315.0
318.0
307.0
292.0
293.0
306.0
311.0
301.0
295.0
302.0
312.0
313.0
309.0
307.0
308.0
312.0
315.0
317.0
304.0
303.0
317.0
317.0
312.0
317.0
309.0
308.0
313.0
316.0
311.0
310.0
317.0
316.0
311.0
310.0
316.0
307.0
310.0
312.0
314.0
311.0
310.0
315.0
320.0
323.0
320.0
316.0
323.0
337.0
349.0
336.0
316.0
300.0
301.0
316.0
312.0
297.0
296.0
313.0
318.0
314.0
305.0
298.0
304.0
312.0
321.0
316.0
306.0
299.0
309.0
351.0
470.0
615.0
649.0
632.0
421.0
169.0
144.0
293.0
393.0
356.0
303.0
298.0
319.0
323.0
319.0
315.0
319.0
323.0
319.0
320.0
326.0
325.0
330.0
331.0
327.0
333.0
339.0
335.0
334.0
341.0
343.0
342.0
349.0
357.0
361.0
361.0
358.0
364.0
377.0
380.0
378.0
379.0
386.0
400.0
398.0
391.0
382.0
372.0
361.0
357.0
351.0
335.0
319.0
313.0
309.0
310.0
303.0
292.0
296.0
317.0
306.0
297.0
302.0
310.0
309.0
311.0
306.0
304.0
306.0
303.0
306.0
313.0
312.0
308.0
307.0
320.0
315.0
307.0
312.0
320.0
318.0
313.0
316.0
315.0
314.0
310.0
314.0
322.0
319.0
311.0
307.0
313.0
315.0
317.0
318.0
314.0
308.0
307.0
320.0
323.0
313.0
305.0
307.0
332.0
341.0
336.0
334.0
335.0
324.0
314.0
310.0
320.0
317.0
303.0
302.0
312.0
313.0
308.0
308.0
314.0
321.0
317.0
309.0
312.0
315.0
312.0
314.0
348.0
440.0
584.0
649.0
644.0
467.0
204.0
140.0
265.0
377.0
367.0
311.0
295.0
317.0
329.0
327.0
312.0
314.0
324.0
326.0
321.0
320.0
320.0
325.0
337.0
336.0
336.0
333.0
332.0
341.0
351.0
347.0
343.0
341.0
349.0
366.0
365.0
373.0
372.0
365.0
376.0
394.0
390.0
385.0
391.0
395.0
398.0
391.0
381.0
378.0
364.0
351.0
338.0
334.0
329.0
317.0
303.0
305.0
313.0
314.0
310.0
297.0
301.0
314.0
306.0
303.0
307.0
320.0
306.0
300.0
313.0
323.0
316.0
308.0
310.0
321.0
320.0
311.0
313.0
316.0
314.0
320.0
320.0
316.0
314.0
317.0
320.0
317.0
306.0
311.0
326.0
330.0
316.0
309.0
318.0
329.0
324.0
312.0
310.0
315.0
315.0
323.0
324.0
322.0
324.0
330.0
336.0
348.0
340.0
328.0
321.0
319.0
316.0
318.0
316.0
307.0
306.0
311.0
314.0
310.0
311.0
314.0
315.0
319.0
314.0
314.0
316.0
322.0
337.0
406.0
545.0
650.0
649.0
544.0
269.0
130.0
221.0
367.0
389.0
327.0
298.0
315.0
333.0
327.0
318.0
322.0
330.0
322.0
317.0
324.0
330.0
340.0
338.0
333.0
330.0
337.0
343.0
342.0
337.0
348.0
357.0
354.0
351.0
361.0
363.0
361.0
369.0
383.0
385.0
373.0
373.0
387.0
395.0
397.0
392.0
381.0
382.0
389.0
375.0
354.0
337.0
332.0
326.0
315.0
313.0
305.0
303.0
306.0
311.0
308.0
307.0
304.0
304.0
305.0
307.0
309.0
305.0
310.0
318.0
312.0
306.0
311.0
313.0
310.0
310.0
324.0
324.0
313.0
308.0
313.0
313.0
306.0
312.0
313.0
314.0
325.0
316.0
304.0
312.0
321.0
318.0
323.0
319.0
308.0
312.0
311.0
316.0
316.0
314.0
324.0
326.0
312.0
319.0
329.0
337.0
345.0
340.0
323.0
300.0
300.0
322.0
326.0
309.0
294.0
306.0
312.0
310.0
310.0
314.0
313.0
309.0
313.0
316.0
311.0
304.0
320.0
363.0
470.0
615.0
649.0
618.0
397.0
177.0
165.0
300.0
373.0
351.0
312.0
303.0
313.0
323.0
322.0
318.0
313.0
318.0
317.0
323.0
334.0
329.0
325.0
326.0
327.0
330.0
338.0
339.0
347.0
346.0
349.0
348.0
350.0
356.0
361.0
362.0
364.0
368.0
373.0
382.0
389.0
391.0
397.0
385.0
383.0
391.0
394.0
391.0
370.0
347.0
341.0
337.0
330.0
322.0
313.0
304.0
305.0
304.0
305.0
305.0
304.0
301.0
297.0
298.0
311.0
318.0
301.0
300.0
312.0
310.0
305.0
310.0
318.0
313.0
303.0
307.0
315.0
320.0
322.0
316.0
302.0
303.0
316.0
316.0
310.0
313.0
322.0
323.0
311.0
307.0
314.0
313.0
314.0
317.0
316.0
316.0
315.0
311.0
316.0
325.0
333.0
339.0
332.0
325.0
322.0
316.0
311.0
313.0
309.0
310.0
313.0
308.0
307.0
309.0
314.0
320.0
318.0
313.0
319.0
323.0
311.0
308.0
334.0
413.0
551.0
650.0
648.0
536.0
283.0
158.0
232.0
332.0
355.0
337.0
317.0
310.0
317.0
328.0
323.0
321.0
326.0
326.0
325.0
323.0
321.0
329.0
337.0
335.0
332.0
330.0
333.0
339.0
343.0
346.0
344.0
348.0
350.0
347.0
358.0
366.0
367.0
369.0
377.0
380.0
378.0
377.0
386.0
388.0
387.0
385.0
385.0
372.0
360.0
357.0
346.0
334.0
323.0
313.0
312.0
312.0
309.0
305.0
299.0
300.0
307.0
311.0
316.0
309.0
302.0
300.0
304.0
310.0
316.0
312.0
306.0
307.0
312.0
316.0
316.0
313.0
310.0
316.0
316.0
309.0
311.0
316.0
319.0
322.0
313.0
310.0
320.0
319.0
316.0
313.0
313.0
317.0
317.0
313.0
310.0
312.0
320.0
320.0
312.0
311.0
324.0
332.0
328.0
336.0
345.0
337.0
325.0
308.0
304.0
312.0
316.0
306.0
300.0
309.0
314.0
307.0
307.0
310.0
310.0
315.0
318.0
315.0
306.0
299.0
323.0
393.0
523.0
647.0
649.0
566.0
302.0
129.0
200.0
361.0
393.0
328.0
290.0
308.0
324.0
321.0
320.0
318.0
322.0
322.0
313.0
312.0
333.0
334.0
328.0
322.0
325.0
339.0
343.0
342.0
339.0
340.0
345.0
349.0
345.0
346.0
362.0
375.0
371.0
368.0
378.0
383.0
382.0
385.0
388.0
392.0
391.0
385.0
385.0
380.0
370.0
358.0
342.0
328.0
323.0
325.0
317.0
312.0
309.0
308.0
301.0
294.0
304.0
311.0
303.0
301.0
306.0
308.0
302.0
304.0
315.0
319.0
311.0
309.0
313.0
315.0
311.0
316.0
320.0
312.0
308.0
314.0
318.0
316.0
316.0
320.0
318.0
317.0
311.0
314.0
320.0
318.0
324.0
320.0
317.0
315.0
312.0
314.0
323.0
332.0
327.0
322.0
329.0
346.0
350.0
338.0
318.0
307.0
315.0
323.0
317.0
309.0
303.0
305.0
308.0
317.0
315.0
312.0
309.0
311.0
314.0
317.0
312.0
308.0
329.0
398.0
526.0
648.0
648.0
565.0
290.0
131.0
209.0
357.0
386.0
337.0
299.0
303.0
328.0
333.0
323.0
315.0
320.0
328.0
336.0
323.0
316.0
325.0
338.0
336.0
324.0
336.0
343.0
340.0
337.0
346.0
347.0
349.0
361.0
361.0
357.0
363.0
372.0
368.0
368.0
376.0
386.0
392.0
393.0
388.0
390.0
395.0
384.0
368.0
356.0
347.0
344.0
343.0
326.0
309.0
309.0
314.0
310.0
303.0
300.0
304.0
310.0
308.0
303.0
307.0
314.0
313.0
307.0
306.0
312.0
312.0
310.0
311.0
313.0
314.0
312.0
316.0
318.0
317.0
311.0
313.0
314.0
308.0
317.0
317.0
315.0
311.0
315.0
309.0
307.0
315.0
322.0
319.0
315.0
309.0
315.0
319.0
327.0
327.0
317.0
320.0
330.0
343.0
341.0
311.0
297.0
305.0
316.0
306.0
305.0
312.0
309.0
305.0
305.0
310.0
312.0
310.0
309.0
322.0
321.0
299.0
298.0
332.0
395.0
529.0
649.0
648.0
533.0
264.0
134.0
216.0
353.0
385.0
328.0
293.0
308.0
328.0
324.0
315.0
307.0
317.0
323.0
323.0
321.0
331.0
330.0
321.0
327.0
337.0
340.0
336.0
333.0
336.0
342.0
349.0
350.0
346.0
350.0
355.0
361.0
375.0
383.0
371.0
372.0
390.0
389.0
379.0
381.0
391.0
398.0
386.0
367.0
360.0
349.0
338.0
328.0
320.0
317.0
311.0
299.0
303.0
311.0
311.0
302.0
303.0
306.0
292.0
291.0
311.0
318.0
317.0
318.0
313.0
297.0
307.0
324.0
323.0
312.0
308.0
312.0
318.0
317.0
316.0
318.0
319.0
315.0
313.0
317.0
316.0
311.0
309.0
312.0
317.0
315.0
312.0
319.0
317.0
312.0
311.0
312.0
313.0
322.0
326.0
318.0
322.0
336.0
345.0
334.0
312.0
301.0
309.0
316.0
310.0
302.0
304.0
304.0
302.0
311.0
309.0
307.0
306.0
317.0
315.0
308.0
304.0
299.0
327.0
390.0
502.0
623.0
648.0
577.0
320.0
145.0
193.0
325.0
375.0
335.0
303.0
306.0
319.0
321.0
316.0
314.0
317.0
318.0
324.0
324.0
318.0
316.0
322.0
331.0
334.0
330.0
333.0
334.0
334.0
339.0
339.0
343.0
348.0
353.0
354.0
349.0
360.0
373.0
369.0
369.0
376.0
382.0
382.0
392.0
393.0
379.0
366.0
367.0
374.0
362.0
340.0
320.0
315.0
318.0
314.0
308.0
300.0
304.0
308.0
301.0
290.0
286.0
310.0
315.0
305.0
300.0
307.0
302.0
303.0
307.0
314.0
311.0
306.0
313.0
317.0
312.0
306.0
315.0
321.0
315.0
306.0
309.0
323.0
320.0
309.0
306.0
316.0
318.0
311.0
309.0
312.0
318.0
312.0
309.0
315.0
315.0
315.0
321.0
325.0
321.0
317.0
327.0
340.0
347.0
335.0
312.0
298.0
307.0
320.0
313.0
300.0
295.0
297.0
306.0
325.0
314.0
285.0
298.0
327.0
335.0
317.0
302.0
303.0
323.0
411.0
534.0
634.0
648.0
561.0
289.0
135.0
215.0
354.0
377.0
326.0
303.0
315.0
326.0
319.0
317.0
323.0
320.0
321.0
326.0
327.0
327.0
330.0
332.0
335.0
336.0
331.0
338.0
348.0
345.0
339.0
345.0
356.0
353.0
349.0
358.0
373.0
376.0
376.0
382.0
382.0
380.0
384.0
394.0
397.0
391.0
383.0
394.0
388.0
362.0
343.0
336.0
336.0
340.0
323.0
305.0
294.0
305.0
321.0
307.0
306.0
315.0
304.0
298.0
305.0
317.0
318.0
312.0
308.0
308.0
309.0
309.0
319.0
322.0
315.0
308.0
319.0
324.0
317.0
316.0
317.0
313.0
314.0
326.0
325.0
314.0
303.0
303.0
316.0
328.0
326.0
316.0
307.0
307.0
319.0
328.0
322.0
314.0
315.0
327.0
330.0
326.0
328.0
337.0
345.0
333.0
319.0
313.0
314.0
318.0
314.0
305.0
307.0
320.0
320.0
312.0
311.0
317.0
316.0
318.0
316.0
311.0
311.0
311.0
326.0
381.0
501.0
631.0
648.0
599.0
358.0
159.0
182.0
324.0
392.0
351.0
303.0
300.0
320.0
331.0
324.0
319.0
330.0
331.0
328.0
325.0
327.0
334.0
335.0
331.0
329.0
332.0
340.0
343.0
344.0
340.0
345.0
361.0
365.0
356.0
358.0
366.0
370.0
375.0
379.0
385.0
389.0
380.0
381.0
394.0
395.0
389.0
389.0
379.0
363.0
350.0
345.0
333.0
324.0
321.0
314.0
303.0
302.0
306.0
306.0
307.0
302.0
297.0
302.0
303.0
301.0
312.0
313.0
304.0
313.0
320.0
311.0
299.0
307.0
320.0
322.0
313.0
309.0
306.0
304.0
311.0
323.0
320.0
312.0
312.0
320.0
321.0
316.0
309.0
313.0
316.0
305.0
303.0
317.0
317.0
307.0
316.0
319.0
313.0
321.0
324.0
329.0
334.0
333.0
316.0
300.0
308.0
315.0
310.0
296.0
297.0
306.0
311.0
301.0
295.0
307.0
314.0
313.0
310.0
311.0
306.0
303.0
327.0
394.0
524.0
647.0
647.0
535.0
279.0
144.0
220.0
332.0
354.0
325.0
304.0
311.0
317.0
313.0
310.0
313.0
318.0
325.0
321.0
316.0
320.0
329.0
325.0
325.0
329.0
326.0
329.0
342.0
341.0
333.0
334.0
344.0
351.0
349.0
352.0
370.0
371.0
361.0
362.0
377.0
390.0
387.0
375.0
377.0
384.0
387.0
377.0
365.0
355.0
346.0
338.0
339.0
331.0
314.0
302.0
309.0
318.0
310.0
309.0
302.0
298.0
303.0
313.0
310.0
306.0
307.0
309.0
314.0
314.0
310.0
314.0
317.0
317.0
317.0
315.0
316.0
319.0
317.0
319.0
317.0
313.0
322.0
320.0
314.0
320.0
320.0
318.0
321.0
323.0
323.0
318.0
318.0
325.0
328.0
324.0
326.0
331.0
340.0
341.0
335.0
325.0
316.0
312.0
324.0
318.0
308.0
310.0
310.0
314.0
316.0
320.0
328.0
317.0
311.0
314.0
318.0
311.0
310.0
338.0
405.0
531.0
647.0
648.0
557.0
296.0
141.0
208.0
348.0
387.0
339.0
304.0
312.0
323.0
327.0
325.0
323.0
325.0
320.0
327.0
342.0
335.0
321.0
329.0
345.0
339.0
333.0
336.0
339.0
343.0
345.0
349.0
352.0
354.0
354.0
360.0
367.0
372.0
376.0
378.0
382.0
386.0
387.0
388.0
387.0
395.0
393.0
376.0
365.0
366.0
354.0
338.0
331.0
328.0
318.0
313.0
310.0
308.0
305.0
307.0
310.0
308.0
307.0
308.0
307.0
301.0
304.0
314.0
313.0
308.0
308.0
313.0
321.0
328.0
321.0
312.0
318.0
320.0
320.0
318.0
319.0
319.0
314.0
318.0
319.0
321.0
320.0
315.0
313.0
322.0
324.0
324.0
316.0
315.0
321.0
319.0
311.0
314.0
320.0
323.0
324.0
320.0
317.0
320.0
337.0
347.0
338.0
326.0
318.0
315.0
312.0
312.0
310.0
304.0
303.0
311.0
317.0
311.0
308.0
311.0
312.0
313.0
317.0
315.0
310.0
309.0
332.0
415.0
555.0
649.0
647.0
527.0
258.0
130.0
223.0
372.0
390.0
323.0
285.0
301.0
328.0
335.0
320.0
307.0
315.0
323.0
318.0
324.0
336.0
326.0
322.0
326.0
325.0
330.0
342.0
339.0
331.0
336.0
347.0
353.0
350.0
353.0
362.0
363.0
371.0
372.0
376.0
378.0
375.0
380.0
388.0
391.0
391.0
385.0
377.0
372.0
365.0
341.0
326.0
329.0
325.0
315.0
307.0
309.0
305.0
294.0
294.0
307.0
307.0
301.0
304.0
309.0
308.0
304.0
300.0
306.0
320.0
321.0
311.0
306.0
310.0
313.0
313.0
318.0
317.0
315.0
313.0
312.0
313.0
315.0
315.0
310.0
313.0
316.0
318.0
315.0
316.0
313.0
310.0
312.0
313.0
316.0
316.0
320.0
312.0
307.0
309.0
312.0
321.0
319.0
314.0
316.0
320.0
321.0
328.0
333.0
340.0
335.0
317.0
298.0
304.0
316.0
312.0
304.0
304.0
309.0
311.0
308.0
302.0
308.0
320.0
320.0
314.0
308.0
304.0
304.0
319.0
372.0
484.0
620.0
649.0
613.0
381.0
164.0
169.0
312.0
388.0
357.0
304.0
294.0
316.0
332.0
328.0
316.0
311.0
314.0
319.0
331.0
330.0
326.0
329.0
328.0
329.0
335.0
336.0
331.0
338.0
346.0
344.0
343.0
351.0
355.0
363.0
361.0
359.0
365.0
375.0
382.0
385.0
385.0
380.0
381.0
391.0
390.0
387.0
379.0
364.0
352.0
341.0
335.0
326.0
318.0
312.0
301.0
301.0
310.0
315.0
304.0
294.0
296.0
305.0
309.0
305.0
303.0
305.0
303.0
308.0
311.0
314.0
306.0
308.0
324.0
321.0
311.0
311.0
316.0
316.0
310.0
316.0
320.0
317.0
315.0
315.0
320.0
319.0
309.0
307.0
318.0
318.0
314.0
315.0
314.0
310.0
313.0
321.0
319.0
311.0
311.0
317.0
322.0
315.0
308.0
311.0
323.0
321.0
315.0
310.0
319.0
318.0
320.0
317.0
324.0
335.0
339.0
339.0
334.0
326.0
318.0
316.0
320.0
320.0
301.0
301.0
310.0
312.0
315.0
316.0
309.0
313.0
318.0
320.0
322.0
317.0
306.0
309.0
333.0
400.0
521.0
646.0
649.0
588.0
329.0
146.0
198.0
349.0
391.0
339.0
301.0
307.0
325.0
326.0
323.0
324.0
329.0
324.0
320.0
333.0
329.0
330.0
338.0
331.0
322.0
326.0
339.0
348.0
347.0
343.0
344.0
351.0
359.0
360.0
362.0
369.0
377.0
374.0
373.0
377.0
383.0
390.0
394.0
393.0
389.0
393.0
393.0
385.0
366.0
348.0
338.0
337.0
326.0
310.0
303.0
305.0
306.0
306.0
311.0
306.0
300.0
296.0
299.0
306.0
308.0
306.0
301.0
306.0
310.0
305.0
309.0
309.0
309.0
312.0
320.0
324.0
310.0
304.0
315.0
319.0
310.0
308.0
319.0
315.0
316.0
314.0
309.0
313.0
317.0
313.0
314.0
316.0
317.0
316.0
310.0
310.0
318.0
317.0
309.0
309.0
311.0
312.0
312.0
327.0
326.0
309.0
309.0
319.0
316.0
318.0
317.0
315.0
313.0
319.0
328.0
335.0
328.0
321.0
315.0
315.0
321.0
320.0
304.0
305.0
314.0
309.0
304.0
313.0
320.0
317.0
315.0
319.0
325.0
316.0
305.0
317.0
371.0
481.0
615.0
649.0
628.0
415.0
182.0
163.0
298.0
385.0
363.0
316.0
306.0
321.0
328.0
330.0
326.0
322.0
320.0
325.0
322.0
324.0
331.0
329.0
331.0
336.0
341.0
336.0
336.0
342.0
343.0
347.0
348.0
348.0
354.0
364.0
361.0
365.0
375.0
378.0
372.0
380.0
389.0
398.0
393.0
388.0
385.0
385.0
385.0
379.0
355.0
338.0
333.0
329.0
322.0
314.0
308.0
307.0
306.0
304.0
305.0
309.0
308.0
304.0
299.0
300.0
305.0
312.0
312.0
307.0
305.0
307.0
320.0
319.0
305.0
306.0
316.0
323.0
310.0
309.0
324.0
327.0
313.0
307.0
313.0
320.0
313.0
312.0
315.0
316.0
312.0
313.0
317.0
315.0
315.0
318.0
316.0
316.0
310.0
309.0
311.0
315.0
320.0
318.0
312.0
315.0
326.0
322.0
315.0
318.0
314.0
311.0
324.0
332.0
331.0
327.0
318.0
312.0
318.0
326.0
314.0
307.0
308.0
312.0
314.0
318.0
316.0
319.0
322.0
316.0
315.0
316.0
322.0
321.0
326.0
388.0
524.0
648.0
649.0
580.0
325.0
149.0
200.0
347.0
394.0
343.0
301.0
308.0
336.0
342.0
324.0
310.0
320.0
333.0
336.0
327.0
323.0
329.0
341.0
341.0
327.0
337.0
341.0
338.0
342.0
347.0
354.0
354.0
351.0
356.0
361.0
368.0
377.0
377.0
378.0
378.0
380.0
395.0
397.0
392.0
388.0
384.0
387.0
388.0
366.0
346.0
345.0
334.0
324.0
316.0
314.0
307.0
301.0
302.0
307.0
311.0
305.0
297.0
297.0
301.0
307.0
311.0
309.0
302.0
303.0
307.0
313.0
307.0
304.0
317.0
324.0
313.0
303.0
307.0
315.0
317.0
312.0
308.0
316.0
318.0
306.0
311.0
320.0
318.0
310.0
309.0
317.0
321.0
316.0
310.0
313.0
318.0
313.0
314.0
312.0
307.0
311.0
315.0
317.0
314.0
318.0
318.0
322.0
316.0
307.0
305.0
316.0
330.0
337.0
328.0
314.0
308.0
311.0
320.0
315.0
302.0
306.0
315.0
306.0
302.0
310.0
321.0
314.0
305.0
313.0
327.0
323.0
309.0
319.0
369.0
477.0
622.0
650.0
605.0
382.0
176.0
178.0
297.0
366.0
344.0
312.0
311.0
321.0
324.0
322.0
323.0
330.0
326.0
321.0
326.0
324.0
325.0
331.0
337.0
328.0
330.0
337.0
341.0
342.0
340.0
336.0
343.0
354.0
351.0
349.0
356.0
370.0
366.0
360.0
373.0
389.0
386.0
380.0
379.0
382.0
391.0
392.0
377.0
364.0
361.0
351.0
333.0
325.0
320.0
315.0
313.0
312.0
313.0
307.0
298.0
303.0
306.0
307.0
307.0
312.0
307.0
305.0
307.0
304.0
315.0
325.0
314.0
303.0
310.0
318.0
320.0
318.0
315.0
316.0
321.0
322.0
315.0
318.0
322.0
316.0
313.0
321.0
322.0
318.0
318.0
321.0
315.0
317.0
316.0
319.0
320.0
317.0
318.0
320.0
320.0
319.0
316.0
318.0
319.0
324.0
321.0
317.0
321.0
323.0
326.0
334.0
331.0
327.0
319.0
319.0
321.0
322.0
309.0
305.0
311.0
313.0
314.0
313.0
310.0
315.0
322.0
320.0
316.0
323.0
318.0
316.0
345.0
435.0
581.0
649.0
646.0
509.0
245.0
135.0
247.0
387.0
389.0
324.0
290.0
320.0
343.0
336.0
319.0
321.0
332.0
334.0
332.0
324.0
328.0
332.0
336.0
335.0
334.0
340.0
344.0
339.0
341.0
350.0
354.0
359.0
358.0
355.0
357.0
365.0
374.0
370.0
372.0
389.0
395.0
397.0
398.0
398.0
391.0
390.0
389.0
386.0
376.0
356.0
332.0
329.0
325.0
318.0
320.0
314.0
305.0
305.0
302.0
306.0
313.0
313.0
308.0
298.0
302.0
308.0
310.0
304.0
310.0
320.0
311.0
302.0
311.0
325.0
324.0
313.0
309.0
315.0
320.0
322.0
316.0
314.0
316.0
319.0
322.0
318.0
309.0
313.0
324.0
320.0
315.0
317.0
318.0
321.0
324.0
316.0
310.0
311.0
317.0
325.0
326.0
317.0
316.0
324.0
322.0
319.0
325.0
325.0
313.0
321.0
322.0
314.0
323.0
323.0
323.0
331.0
328.0
313.0
307.0
324.0
326.0
307.0
296.0
314.0
326.0
314.0
310.0
322.0
329.0
323.0
310.0
307.0
317.0
332.0
342.0
415.0
565.0
649.0
645.0
485.0
214.0
132.0
239.0
359.0
366.0
323.0
299.0
305.0
328.0
335.0
320.0
313.0
317.0
327.0
326.0
319.0
317.0
327.0
337.0
332.0
329.0
327.0
336.0
343.0
342.0
351.0
349.0
345.0
348.0
365.0
373.0
361.0
358.0
370.0
381.0
380.0
378.0
384.0
385.0
383.0
384.0
394.0
397.0
383.0
364.0
351.0
345.0
338.0
332.0
325.0
311.0
310.0
314.0
304.0
299.0
303.0
316.0
312.0
301.0
289.0
298.0
326.0
326.0
306.0
302.0
310.0
341.0
325.0
291.0
286.0
326.0
353.0
305.0
263.0
283.0
337.0
354.0
344.0
331.0
290.0
288.0
316.0
348.0
325.0
290.0
290.0
307.0
320.0
353.0
349.0
323.0
312.0
306.0
317.0
351.0
334.0
315.0
318.0
344.0
347.0
315.0
312.0
326.0
340.0
341.0
329.0
298.0
325.0
354.0
349.0
336.0
330.0
307.0
313.0
333.0
333.0
314.0
309.0
303.0
327.0
309.0
313.0
316.0
327.0
314.0
305.0
301.0
310.0
347.0
338.0
389.0
553.0
642.0
644.0
493.0
208.0
135.0
291.0
400.0
372.0
322.0
310.0
316.0
339.0
355.0
332.0
288.0
316.0
374.0
375.0
329.0
297.0
334.0
358.0
349.0
330.0
354.0
354.0
372.0
349.0
328.0
346.0
365.0
324.0
357.0
378.0
356.0
382.0
392.0
376.0
355.0
361.0
387.0
352.0
361.0
378.0
383.0
373.0
340.0
346.0
367.0
316.0
294.0
329.0
307.0
250.0
321.0
330.0
299.0
290.0
284.0
253.0
310.0
287.0
239.0
309.0
345.0
297.0
263.0
293.0
314.0
298.0
296.0
300.0
304.0
287.0
319.0
301.0
286.0
302.0
305.0
256.0
264.0
286.0
300.0
311.0
277.0
265.0
280.0
289.0
289.0
296.0
296.0
271.0
275.0
277.0
260.0
237.0
272.0
324.0
233.0
183.0
251.0
355.0
380.0
327.0
309.0
295.0
301.0
339.0
352.0
309.0
278.0
272.0
326.0
377.0
337.0
310.0
295.0
282.0
267.0
321.0
329.0
335.0
326.0
286.0
305.0
350.0
357.0
334.0
373.0
436.0
518.0
647.0
647.0
514.0
232.0
125.0
241.0
382.0
386.0
305.0
313.0
324.0
346.0
342.0
323.0
317.0
324.0
295.0
303.0
346.0
353.0
313.0
350.0
364.0
360.0
350.0
332.0
344.0
364.0
387.0
361.0
341.0
350.0
363.0
394.0
399.0
380.0
381.0
391.0
402.0
404.0
386.0
386.0
401.0
403.0
395.0
396.0
393.0
366.0
338.0
342.0
342.0
302.0
299.0
328.0
337.0
323.0
316.0
313.0
301.0
318.0
326.0
313.0
283.0
308.0
324.0
318.0
304.0
312.0
325.0
309.0
300.0
322.0
311.0
308.0
328.0
313.0
311.0
318.0
322.0
302.0
313.0
334.0
326.0
297.0
292.0
329.0
352.0
320.0
289.0
322.0
312.0
312.0
326.0
335.0
311.0
331.0
347.0
322.0
309.0
315.0
343.0
376.0
356.0
320.0
289.0
294.0
351.0
338.0
306.0
302.0
313.0
315.0
306.0
313.0
286.0
317.0
344.0
311.0
286.0
304.0
330.0
356.0
406.0
509.0
618.0
647.0
544.0
280.0
129.0
226.0
400.0
393.0
320.0
279.0
320.0
364.0
348.0
307.0
292.0
299.0
339.0
367.0
331.0
302.0
324.0
343.0
325.0
312.0
336.0
352.0
356.0
349.0
337.0
343.0
346.0
364.0
365.0
343.0
370.0
373.0
375.0
379.0
358.0
354.0
404.0
411.0
374.0
352.0
380.0
399.0
383.0
365.0
347.0
341.0
330.0
322.0
322.0
320.0
310.0
306.0
317.0
302.0
292.0
305.0
316.0
305.0
298.0
287.0
302.0
325.0
323.0
293.0
275.0
316.0
335.0
306.0
265.0
298.0
349.0
331.0
296.0
300.0
306.0
308.0
305.0
315.0
320.0
314.0
297.0
315.0
306.0
304.0
305.0
291.0
300.0
323.0
314.0
291.0
302.0
316.0
336.0
340.0
328.0
314.0
315.0
303.0
291.0
290.0
307.0
270.0
288.0
329.0
317.0
296.0
293.0
299.0
305.0
301.0
312.0
307.0
291.0
301.0
367.0
488.0
613.0
647.0
577.0
331.0
137.0
168.0
317.0
390.0
328.0
277.0
303.0
330.0
322.0
314.0
306.0
303.0
306.0
327.0
321.0
297.0
300.0
331.0
327.0
326.0
312.0
308.0
315.0
349.0
355.0
320.0
313.0
345.0
357.0
350.0
341.0
345.0
369.0
373.0
367.0
361.0
370.0
372.0
368.0
373.0
388.0
376.0
356.0
360.0
362.0
341.0
316.0
322.0
316.0
312.0
302.0
289.0
291.0
295.0
306.0
309.0
297.0
300.0
302.0
301.0
311.0
307.0
301.0
295.0
301.0
316.0
307.0
293.0
310.0
319.0
304.0
298.0
313.0
313.0
300.0
312.0
321.0
307.0
306.0
314.0
296.0
307.0
315.0
321.0
303.0
319.0
328.0
315.0
314.0
320.0
335.0
339.0
332.0
315.0
294.0
310.0
324.0
304.0
303.0
314.0
311.0
302.0
287.0
308.0
332.0
306.0
291.0
313.0
322.0
308.0
299.0
341.0
442.0
574.0
649.0
637.0
458.0
198.0
142.0
272.0
377.0
364.0
315.0
295.0
310.0
321.0
333.0
329.0
314.0
322.0
324.0
328.0
329.0
330.0
327.0
329.0
329.0
325.0
337.0
346.0
331.0
342.0
351.0
360.0
358.0
353.0
356.0
352.0
359.0
378.0
388.0
385.0
380.0
380.0
389.0
397.0
394.0
388.0
383.0
386.0
371.0
356.0
346.0
351.0
339.0
320.0
312.0
313.0
315.0
316.0
315.0
321.0
294.0
297.0
315.0
329.0
314.0
302.0
307.0
315.0
320.0
319.0
326.0
332.0
321.0
321.0
314.0
320.0
324.0
319.0
313.0
320.0
321.0
316.0
319.0
317.0
318.0
311.0
324.0
320.0
316.0
316.0
332.0
328.0
325.0
331.0
349.0
354.0
323.0
304.0
306.0
309.0
311.0
314.0
318.0
313.0
308.0
298.0
315.0
328.0
319.0
322.0
314.0
303.0
300.0
319.0
352.0
428.0
571.0
650.0
642.0
472.0
225.0
148.0
256.0
364.0
363.0
318.0
298.0
313.0
337.0
336.0
313.0
307.0
327.0
335.0
324.0
323.0
329.0
330.0
324.0
329.0
335.0
333.0
342.0
339.0
336.0
343.0
351.0
353.0
348.0
346.0
351.0
360.0
373.0
378.0
368.0
370.0
382.0
380.0
382.0
383.0
387.0
387.0
371.0
373.0
360.0
345.0
325.0
319.0
324.0
324.0
316.0
303.0
297.0
303.0
314.0
320.0
311.0
305.0
302.0
308.0
314.0
311.0
301.0
318.0
326.0
317.0
306.0
309.0
320.0
321.0
324.0
322.0
298.0
306.0
322.0
320.0
315.0
312.0
318.0
314.0
320.0
326.0
318.0
324.0
328.0
325.0
316.0
316.0
333.0
343.0
329.0
319.0
310.0
286.0
305.0
328.0
311.0
308.0
297.0
276.0
308.0
333.0
304.0
298.0
320.0
329.0
307.0
289.0
290.0
343.0
407.0
503.0
643.0
649.0
565.0
288.0
124.0
190.0
313.0
381.0
353.0
299.0
297.0
317.0
319.0
309.0
319.0
325.0
319.0
319.0
323.0
335.0
326.0
310.0
332.0
340.0
331.0
335.0
342.0
348.0
334.0
324.0
361.0
376.0
363.0
349.0
359.0
372.0
373.0
376.0
378.0
375.0
383.0
383.0
371.0
377.0
392.0
382.0
367.0
342.0
350.0
352.0
347.0
322.0
305.0
311.0
321.0
316.0
311.0
303.0
305.0
320.0
306.0
306.0
326.0
317.0
314.0
306.0
304.0
298.0
320.0
331.0
307.0
294.0
324.0
346.0
328.0
304.0
319.0
328.0
319.0
308.0
304.0
308.0
315.0
336.0
332.0
315.0
308.0
327.0
340.0
333.0
326.0
329.0
338.0
339.0
321.0
303.0
314.0
320.0
312.0
298.0
298.0
313.0
303.0
300.0
310.0
307.0
306.0
307.0
322.0
320.0
290.0
301.0
348.0
440.0
579.0
650.0
642.0
462.0
198.0
130.0
264.0
380.0
355.0
299.0
298.0
316.0
331.0
327.0
305.0
302.0
323.0
332.0
316.0
305.0
320.0
331.0
327.0
321.0
329.0
336.0
333.0
325.0
336.0
342.0
341.0
351.0
355.0
344.0
344.0
365.0
366.0
367.0
366.0
374.0
381.0
376.0
376.0
386.0
383.0
370.0
370.0
362.0
342.0
335.0
329.0
311.0
294.0
312.0
312.0
300.0
297.0
297.0
302.0
297.0
293.0
294.0
311.0
312.0
306.0
294.0
307.0
306.0
308.0
308.0
305.0
313.0
314.0
301.0
297.0
316.0
320.0
312.0
308.0
310.0
315.0
318.0
317.0
309.0
311.0
307.0
303.0
313.0
317.0
314.0
318.0
320.0
328.0
318.0
320.0
337.0
334.0
327.0
306.0
297.0
314.0
321.0
304.0
293.0
292.0
305.0
309.0
303.0
306.0
307.0
316.0
319.0
310.0
304.0
307.0
317.0
353.0
461.0
612.0
650.0
627.0
406.0
154.0
139.0
298.0
404.0
353.0
292.0
298.0
318.0
327.0
322.0
303.0
313.0
324.0
321.0
331.0
330.0
314.0
324.0
331.0
336.0
339.0
341.0
333.0
332.0
345.0
358.0
349.0
348.0
364.0
372.0
371.0
363.0
365.0
377.0
388.0
386.0
384.0
386.0
385.0
385.0
387.0
385.0
376.0
365.0
347.0
331.0
329.0
338.0
327.0
304.0
296.0
311.0
317.0
309.0
294.0
295.0
304.0
309.0
309.0
308.0
307.0
312.0
317.0
315.0
311.0
309.0
314.0
320.0
320.0
301.0
294.0
321.0
337.0
328.0
315.0
306.0
314.0
323.0
325.0
323.0
311.0
310.0
303.0
317.0
327.0
322.0
314.0
313.0
318.0
319.0
319.0
311.0
323.0
329.0
321.0
320.0
322.0
344.0
346.0
326.0
313.0
310.0
311.0
320.0
304.0
306.0
303.0
303.0
302.0
321.0
314.0
312.0
325.0
329.0
314.0
312.0
318.0
312.0
350.0
460.0
605.0
649.0
635.0
430.0
188.0
159.0
286.0
375.0
355.0
300.0
304.0
322.0
320.0
318.0
325.0
315.0
311.0
334.0
335.0
319.0
311.0
327.0
333.0
329.0
326.0
340.0
345.0
339.0
342.0
344.0
344.0
350.0
358.0
364.0
366.0
367.0
370.0
379.0
376.0
378.0
382.0
377.0
382.0
400.0
397.0
381.0
377.0
358.0
345.0
349.0
344.0
329.0
319.0
309.0
302.0
303.0
300.0
306.0
304.0
304.0
307.0
306.0
308.0
314.0
313.0
316.0
306.0
314.0
320.0
313.0
303.0
316.0
325.0
310.0
304.0
313.0
327.0
325.0
306.0
309.0
328.0
326.0
307.0
316.0
330.0
322.0
320.0
312.0
316.0
326.0
324.0
307.0
302.0
316.0
322.0
329.0
323.0
313.0
312.0
325.0
325.0
318.0
318.0
315.0
315.0
316.0
324.0
328.0
316.0
316.0
332.0
332.0
331.0
332.0
342.0
340.0
324.0
307.0
306.0
331.0
331.0
312.0
302.0
307.0
314.0
329.0
314.0
314.0
322.0
323.0
322.0
320.0
312.0
316.0
324.0
376.0
494.0
616.0
649.0
622.0
414.0
179.0
165.0
301.0
390.0
362.0
306.0
304.0
324.0
335.0
327.0
320.0
322.0
323.0
326.0
337.0
330.0
326.0
328.0
339.0
336.0
338.0
343.0
343.0
344.0
344.0
342.0
350.0
360.0
359.0
352.0
370.0
378.0
378.0
379.0
391.0
395.0
385.0
374.0
382.0
397.0
402.0
392.0
380.0
376.0
364.0
348.0
336.0
326.0
316.0
327.0
316.0
297.0
293.0
301.0
321.0
315.0
304.0
307.0
306.0
303.0
317.0
313.0
306.0
314.0
312.0
313.0
310.0
320.0
318.0
317.0
309.0
310.0
310.0
319.0
321.0
322.0
316.0
328.0
322.0
318.0
310.0
306.0
320.0
331.0
327.0
309.0
304.0
314.0
321.0
325.0
318.0
318.0
317.0
322.0
318.0
316.0
317.0
315.0
317.0
318.0
307.0
317.0
333.0
332.0
311.0
307.0
322.0
330.0
330.0
319.0
306.0
303.0
331.0
357.0
344.0
306.0
301.0
329.0
336.0
319.0
299.0
306.0
310.0
318.0
330.0
321.0
321.0
318.0
306.0
313.0
332.0
326.0
318.0
320.0
344.0
416.0
567.0
650.0
648.0
526.0
270.0
157.0
245.0
358.0
377.0
325.0
308.0
327.0
341.0
325.0
309.0
324.0
339.0
336.0
322.0
333.0
333.0
329.0
330.0
341.0
343.0
343.0
332.0
338.0
353.0
355.0
341.0
336.0
361.0
380.0
383.0
370.0
359.0
373.0
391.0
386.0
381.0
391.0
393.0
397.0
399.0
385.0
384.0
380.0
375.0
365.0
338.0
329.0
326.0
328.0
314.0
295.0
313.0
320.0
305.0
290.0
304.0
309.0
305.0
303.0
300.0
311.0
330.0
323.0
307.0
306.0
312.0
319.0
309.0
317.0
320.0
307.0
302.0
314.0
327.0
323.0
309.0
306.0
318.0
316.0
323.0
319.0
311.0
315.0
329.0
327.0
308.0
302.0
311.0
322.0
310.0
304.0
322.0
326.0
318.0
310.0
314.0
324.0
316.0
314.0
317.0
314.0
320.0
320.0
319.0
302.0
316.0
326.0
322.0
328.0
332.0
332.0
324.0
316.0
306.0
321.0
330.0
312.0
293.0
308.0
311.0
317.0
324.0
310.0
312.0
317.0
319.0
313.0
310.0
314.0
323.0
332.0
373.0
474.0
618.0
649.0
620.0
404.0
183.0
164.0
297.0
392.0
365.0
304.0
294.0
316.0
330.0
330.0
332.0
320.0
311.0
320.0
327.0
335.0
333.0
331.0
329.0
325.0
328.0
340.0
348.0
342.0
334.0
335.0
353.0
355.0
358.0
364.0
360.0
370.0
379.0
375.0
379.0
387.0
391.0
396.0
391.0
384.0
395.0
397.0
392.0
378.0
358.0
338.0
335.0
333.0
318.0
305.0
304.0
311.0
309.0
308.0
299.0
304.0
309.0
304.0
297.0
297.0
302.0
304.0
309.0
309.0
307.0
303.0
304.0
312.0
318.0
311.0
296.0
307.0
327.0
321.0
308.0
311.0
308.0
307.0
311.0
325.0
326.0
317.0
312.0
313.0
299.0
318.0
329.0
314.0
302.0
311.0
322.0
314.0
310.0
312.0
314.0
317.0
317.0
316.0
307.0
312.0
320.0
316.0
301.0
309.0
329.0
320.0
315.0
308.0
309.0
320.0
328.0
331.0
318.0
315.0
331.0
322.0
314.0
319.0
316.0
304.0
297.0
303.0
320.0
322.0
316.0
305.0
310.0
319.0
322.0
318.0
315.0
311.0
312.0
337.0
416.0
544.0
644.0
648.0
561.0
307.0
152.0
213.0
345.0
380.0
328.0
299.0
311.0
324.0
330.0
330.0
324.0
313.0
312.0
317.0
328.0
336.0
335.0
325.0
314.0
331.0
350.0
340.0
334.0
337.0
346.0
351.0
348.0
354.0
356.0
361.0
372.0
378.0
374.0
372.0
378.0
391.0
393.0
397.0
390.0
395.0
398.0
393.0
384.0
375.0
356.0
342.0
328.0
312.0
307.0
321.0
314.0
310.0
310.0
297.0
290.0
299.0
308.0
318.0
314.0
295.0
292.0
304.0
320.0
309.0
301.0
310.0
315.0
309.0
305.0
316.0
313.0
316.0
316.0
321.0
319.0
308.0
307.0
330.0
322.0
302.0
305.0
323.0
324.0
315.0
305.0
318.0
326.0
315.0
303.0
314.0
323.0
314.0
306.0
307.0
326.0
327.0
317.0
309.0
307.0
314.0
321.0
329.0
322.0
318.0
314.0
310.0
312.0
326.0
322.0
308.0
310.0
322.0
333.0
336.0
331.0
322.0
323.0
316.0
325.0
326.0
309.0
306.0
307.0
307.0
314.0
315.0
322.0
322.0
314.0
312.0
319.0
328.0
320.0
309.0
327.0
367.0
455.0
590.0
650.0
633.0
445.0
215.0
170.0
276.0
344.0
344.0
333.0
325.0
326.0
330.0
320.0
315.0
336.0
333.0
324.0
324.0
318.0
331.0
344.0
345.0
333.0
326.0
345.0
352.0
350.0
347.0
336.0
346.0
362.0
363.0
365.0
369.0
372.0
379.0
382.0
375.0
385.0
400.0
395.0
390.0
395.0
399.0
395.0
397.0
381.0
359.0
338.0
343.0
352.0
337.0
317.0
310.0
312.0
312.0
300.0
299.0
310.0
315.0
314.0
309.0
302.0
304.0
306.0
304.0
319.0
324.0
308.0
303.0
312.0
324.0
311.0
311.0
324.0
326.0
313.0
311.0
320.0
316.0
324.0
322.0
317.0
319.0
323.0
327.0
325.0
308.0
313.0
332.0
328.0
316.0
320.0
319.0
303.0
310.0
332.0
333.0
317.0
314.0
313.0
318.0
325.0
324.0
329.0
320.0
316.0
318.0
324.0
327.0
328.0
320.0
308.0
318.0
329.0
326.0
327.0
337.0
340.0
329.0
318.0
310.0
319.0
333.0
320.0
307.0
302.0
312.0
311.0
319.0
325.0
317.0
315.0
326.0
331.0
320.0
306.0
315.0
352.0
408.0
519.0
645.0
648.0
574.0
322.0
153.0
210.0
333.0
369.0
340.0
313.0
313.0
328.0
331.0
327.0
325.0
322.0
325.0
333.0
333.0
328.0
329.0
328.0
330.0
324.0
333.0
358.0
350.0
339.0
350.0
352.0
350.0
344.0
353.0
370.0
364.0
362.0
369.0
382.0
386.0
393.0
388.0
390.0
397.0
398.0
398.0
389.0
389.0
372.0
361.0
344.0
329.0
336.0
319.0
313.0
317.0
314.0
301.0
289.0
305.0
316.0
299.0
306.0
317.0
307.0
295.0
299.0
307.0
308.0
308.0
316.0
320.0
311.0
300.0
311.0
316.0
315.0
314.0
307.0
311.0
320.0
328.0
314.0
309.0
319.0
320.0
309.0
308.0
327.0
328.0
303.0
294.0
316.0
327.0
328.0
317.0
306.0
297.0
307.0
333.0
329.0
310.0
305.0
325.0
324.0
304.0
311.0
336.0
326.0
315.0
315.0
316.0
304.0
314.0
333.0
324.0
310.0
323.0
330.0
313.0
307.0
329.0
342.0
331.0
329.0
329.0
319.0
315.0
314.0
323.0
322.0
306.0
304.0
313.0
323.0
324.0
315.0
316.0
325.0
316.0
322.0
327.0
325.0
316.0
343.0
416.0
540.0
649.0
648.0
574.0
330.0
163.0
208.0
333.0
380.0
346.0
314.0
312.0
315.0
331.0
330.0
330.0
328.0
320.0
330.0
332.0
330.0
336.0
341.0
333.0
328.0
330.0
