91.0
684.0
584.0
318.0
383.0
416.0
468.0
537.0
610.0
672.0
715.0
727.0
709.0
656.0
582.0
499.0
421.0
357.0
319.0
310.0
329.0
385.0
686.0
630.0
340.0
421.0
707.0
580.0
320.0
463.0
721.0
509.0
283.0
477.0
679.0
435.0
274.0
515.0
641.0
367.0
280.0
557.0
629.0
334.0
300.0
601.0
601.0
313.0
350.0
647.0
568.0
284.0
386.0
668.0
521.0
281.0
447.0
682.0
466.0
276.0
495.0
682.0
423.0
289.0
550.0
665.0
381.0
305.0
601.0
642.0
344.0
336.0
634.0
603.0
328.0
380.0
663.0
557.0
296.0
418.0
686.0
518.0
298.0
480.0
701.0
480.0
318.0
559.0
695.0
405.0
295.0
584.0
677.0
364.0
308.0
611.0
636.0
342.0
353.0
639.0
591.0
326.0
406.0
682.0
544.0
292.0
449.0
736.0
621.0
525.0
810.0
959.0
498.0
151.0
411.0
680.0
459.0
341.0
583.0
638.0
370.0
358.0
647.0
625.0
334.0
387.0
688.0
595.0
316.0
427.0
703.0
555.0
320.0
485.0
717.0
507.0
326.0
552.0
726.0
466.0
343.0
610.0
717.0
432.0
377.0
673.0
702.0
400.0
410.0
725.0
688.0
386.0
456.0
753.0
633.0
370.0
511.0
762.0
557.0
321.0
510.0
724.0
486.0
311.0
550.0
690.0
415.0
312.0
602.0
679.0
371.0
334.0
635.0
641.0
347.0
380.0
678.0
598.0
317.0
423.0
703.0
545.0
308.0
476.0
721.0
503.0
302.0
515.0
712.0
460.0
320.0
572.0
683.0
408.0
339.0
628.0
665.0
365.0
357.0
657.0
625.0
336.0
397.0
689.0
582.0
317.0
450.0
714.0
531.0
302.0
491.0
720.0
494.0
313.0
551.0
727.0
461.0
340.0
597.0
676.0
385.0
347.0
639.0
637.0
332.0
357.0
675.0
608.0
314.0
402.0
694.0
559.0
303.0
461.0
712.0
503.0
297.0
540.0
835.0
709.0
614.0
818.0
748.0
274.0
174.0
594.0
744.0
408.0
329.0
628.0
641.0
357.0
392.0
680.0
594.0
319.0
435.0
719.0
551.0
303.0
481.0
730.0
513.0
311.0
533.0
733.0
471.0
335.0
598.0
715.0
428.0
366.0
660.0
694.0
394.0
408.0
715.0
672.0
383.0
455.0
751.0
635.0
365.0
509.0
774.0
584.0
352.0
535.0
750.0
503.0
319.0
557.0
707.0
427.0
316.0
593.0
680.0
369.0
325.0
634.0
648.0
339.0
368.0
667.0
594.0
319.0
416.0
700.0
559.0
302.0
455.0
711.0
509.0
300.0
509.0
704.0
456.0
313.0
569.0
688.0
405.0
328.0
617.0
670.0
366.0
349.0
650.0
630.0
335.0
387.0
686.0
589.0
320.0
426.0
702.0
533.0
300.0
487.0
718.0
485.0
298.0
532.0
711.0
445.0
327.0
591.0
697.0
418.0
362.0
637.0
642.0
350.0
370.0
666.0
597.0
311.0
402.0
694.0
564.0
302.0
444.0
702.0
510.0
299.0
504.0
710.0
454.0
299.0
582.0
803.0
622.0
599.0
901.0
809.0
257.0
149.0
590.0
717.0
393.0
361.0
651.0
592.0
328.0
432.0
704.0
546.0
303.0
477.0
726.0
505.0
296.0
532.0
728.0
451.0
316.0
601.0
718.0
411.0
341.0
650.0
697.0
381.0
381.0
701.0
663.0
359.0
437.0
749.0
636.0
350.0
490.0
778.0
593.0
350.0
552.0
787.0
541.0
354.0
582.0
743.0
463.0
341.0
602.0
676.0
379.0
344.0
635.0
636.0
337.0
370.0
662.0
584.0
315.0
411.0
692.0
542.0
297.0
456.0
707.0
503.0
302.0
510.0
702.0
454.0
314.0
557.0
685.0
408.0
332.0
610.0
658.0
376.0
354.0
640.0
619.0
345.0
389.0
670.0
576.0
318.0
438.0
695.0
518.0
296.0
488.0
709.0
474.0
300.0
531.0
701.0
436.0
310.0
568.0
674.0
393.0
337.0
617.0
639.0
354.0
373.0
667.0
603.0
330.0
424.0
713.0
588.0
318.0
440.0
692.0
512.0
299.0
483.0
687.0
459.0
305.0
542.0
670.0
402.0
325.0
601.0
661.0
368.0
337.0
631.0
626.0
377.0
505.0
908.0
898.0
558.0
449.0
557.0
424.0
303.0
523.0
727.0
484.0
298.0
526.0
708.0
439.0
315.0
581.0
697.0
403.0
329.0
620.0
668.0
375.0
384.0
671.0
626.0
344.0
410.0
699.0
598.0
346.0
476.0
728.0
548.0
335.0
524.0
744.0
527.0
359.0
593.0
760.0
488.0
374.0
650.0
740.0
459.0
412.0
693.0
700.0
402.0
413.0
695.0
625.0
342.0
414.0
690.0
560.0
307.0
447.0
694.0
499.0
302.0
503.0
697.0
451.0
302.0
548.0
684.0
406.0
317.0
602.0
667.0
370.0
346.0
653.0
634.0
338.0
381.0
671.0
591.0
322.0
420.0
694.0
539.0
305.0
477.0
702.0
489.0
305.0
526.0
704.0
440.0
311.0
576.0
686.0
401.0
331.0
608.0
649.0
370.0
372.0
657.0
604.0
336.0
410.0
687.0
566.0
309.0
444.0
705.0
524.0
312.0
507.0
711.0
478.0
333.0
576.0
710.0
420.0
310.0
591.0
678.0
377.0
326.0
623.0
640.0
354.0
366.0
660.0
596.0
324.0
419.0
698.0
548.0
299.0
458.0
728.0
586.0
484.0
786.0
989.0
628.0
237.0
396.0
624.0
458.0
383.0
612.0
638.0
367.0
377.0
655.0
619.0
333.0
402.0
697.0
591.0
320.0
436.0
708.0
545.0
314.0
494.0
720.0
501.0
325.0
559.0
725.0
457.0
342.0
615.0
716.0
421.0
374.0
675.0
707.0
408.0
417.0
717.0
678.0
397.0
471.0
753.0
634.0
379.0
504.0
756.0
568.0
336.0
520.0
720.0
472.0
311.0
548.0
693.0
408.0
314.0
592.0
661.0
371.0
342.0
635.0
626.0
331.0
364.0
669.0
601.0
317.0
414.0
684.0
539.0
306.0
471.0
706.0
497.0
304.0
520.0
701.0
440.0
309.0
572.0
685.0
403.0
332.0
612.0
643.0
360.0
366.0
653.0
609.0
330.0
399.0
682.0
560.0
308.0
444.0
703.0
520.0
299.0
490.0
705.0
472.0
306.0
544.0
701.0
433.0
316.0
588.0
676.0
391.0
343.0
623.0
640.0
357.0
378.0
671.0
613.0
331.0
424.0
712.0
584.0
325.0
461.0
700.0
503.0
300.0
498.0
695.0
452.0
300.0
548.0
688.0
411.0
319.0
594.0
657.0
377.0
352.0
629.0
618.0
360.0
461.0
861.0
874.0
614.0
572.0
633.0
390.0
229.0
504.0
761.0
500.0
282.0
513.0
706.0
449.0
313.0
566.0
678.0
410.0
346.0
621.0
652.0
372.0
378.0
664.0
622.0
350.0
411.0
696.0
588.0
342.0
474.0
728.0
539.0
329.0
536.0
754.0
514.0
350.0
592.0
746.0
481.0
376.0
658.0
740.0
447.0
406.0
700.0
711.0
406.0
414.0
701.0
629.0
344.0
423.0
698.0
550.0
308.0
460.0
695.0
490.0
304.0
513.0
693.0
445.0
308.0
562.0
683.0
401.0
320.0
607.0
660.0
364.0
356.0
650.0
622.0
339.0
398.0
685.0
580.0
322.0
432.0
694.0
535.0
319.0
491.0
704.0
477.0
308.0
546.0
704.0
433.0
318.0
582.0
680.0
395.0
342.0
625.0
642.0
357.0
376.0
669.0
608.0
330.0
407.0
685.0
567.0
318.0
454.0
701.0
518.0
313.0
502.0
707.0
474.0
326.0
556.0
691.0
422.0
336.0
608.0
677.0
401.0
366.0
639.0
635.0
353.0
385.0
666.0
588.0
339.0
429.0
692.0
543.0
306.0
477.0
712.0
506.0
315.0
522.0
696.0
461.0
366.0
716.0
957.0
724.0
528.0
604.0
523.0
281.0
356.0
687.0
640.0
333.0
394.0
691.0
587.0
319.0
448.0
709.0
531.0
314.0
502.0
725.0
496.0
320.0
545.0
707.0
450.0
350.0
612.0
696.0
407.0
361.0
657.0
682.0
390.0
398.0
686.0
651.0
384.0
460.0
739.0
620.0
374.0
512.0
755.0
567.0
378.0
586.0
767.0
489.0
355.0
617.0
736.0
425.0
324.0
608.0
677.0
379.0
348.0
636.0
613.0
340.0
391.0
670.0
578.0
323.0
443.0
692.0
516.0
302.0
488.0
704.0
481.0
306.0
529.0
698.0
438.0
330.0
583.0
675.0
392.0
344.0
632.0
656.0
360.0
368.0
663.0
617.0
334.0
404.0
693.0
569.0
318.0
462.0
706.0
516.0
312.0
512.0
721.0
477.0
313.0
541.0
694.0
431.0
332.0
605.0
684.0
387.0
345.0
635.0
648.0
378.0
409.0
684.0
596.0
321.0
427.0
706.0
550.0
307.0
473.0
710.0
499.0
310.0
532.0
714.0
451.0
316.0
577.0
695.0
411.0
338.0
638.0
734.0
548.0
640.0
971.0
815.0
297.0
249.0
622.0
609.0
356.0
446.0
692.0
540.0
320.0
500.0
714.0
488.0
314.0
550.0
712.0
445.0
329.0
598.0
698.0
413.0
358.0
639.0
665.0
378.0
399.0
692.0
631.0
354.0
443.0
724.0
598.0
347.0
498.0
750.0
568.0
362.0
552.0
770.0
546.0
381.0
606.0
752.0
494.0
394.0
656.0
714.0
417.0
384.0
666.0
649.0
349.0
393.0
684.0
593.0
320.0
427.0
701.0
543.0
300.0
471.0
703.0
494.0
312.0
530.0
693.0
439.0
316.0
572.0
687.0
410.0
335.0
607.0
658.0
365.0
359.0
651.0
618.0
338.0
405.0
684.0
574.0
325.0
450.0
696.0
517.0
312.0
504.0
705.0
467.0
304.0
544.0
687.0
418.0
324.0
588.0
667.0
391.0
354.0
628.0
629.0
342.0
378.0
669.0
615.0
344.0
413.0
672.0
552.0
316.0
447.0
688.0
496.0
293.0
503.0
694.0
450.0
301.0
539.0
672.0
426.0
331.0
592.0
644.0
373.0
387.0
738.0
848.0
653.0
633.0
730.0
476.0
215.0
396.0
690.0
535.0
298.0
466.0
694.0
478.0
302.0
519.0
687.0
425.0
300.0
570.0
674.0
391.0
341.0
602.0
620.0
355.0
368.0
652.0
615.0
333.0
397.0
682.0
566.0
320.0
463.0
715.0
530.0
326.0
511.0
709.0
498.0
356.0
592.0
728.0
462.0
358.0
629.0
712.0
416.0
372.0
654.0
640.0
353.0
381.0
664.0
585.0
310.0
400.0
672.0
525.0
297.0
456.0
681.0
471.0
299.0
506.0
675.0
435.0
309.0
553.0
657.0
392.0
322.0
595.0
636.0
358.0
350.0
641.0
611.0
327.0
384.0
666.0
572.0
319.0
432.0
682.0
516.0
303.0
486.0
689.0
467.0
307.0
534.0
684.0
416.0
314.0
590.0
673.0
373.0
323.0
622.0
640.0
347.0
359.0
652.0
603.0
327.0
409.0
674.0
547.0
315.0
455.0
695.0
506.0
306.0
503.0
702.0
465.0
311.0
544.0
677.0
420.0
328.0
583.0
641.0
364.0
347.0
631.0
615.0
334.0
377.0
662.0
573.0
312.0
424.0
685.0
528.0
338.0
594.0
949.0
816.0
574.0
592.0
576.0
299.0
278.0
616.0
706.0
378.0
316.0
621.0
655.0
361.0
358.0
642.0
608.0
350.0
396.0
667.0
567.0
326.0
457.0
701.0
524.0
318.0
507.0
711.0
486.0
328.0
559.0
707.0
453.0
352.0
615.0
701.0
426.0
391.0
677.0
682.0
397.0
432.0
730.0
661.0
386.0
476.0
749.0
607.0
357.0
511.0
729.0
510.0
321.0
524.0
680.0
443.0
310.0
552.0
671.0
402.0
325.0
593.0
645.0
364.0
350.0
634.0
605.0
336.0
391.0
677.0
562.0
307.0
434.0
704.0
526.0
309.0
483.0
685.0
474.0
310.0
550.0
700.0
423.0
324.0
589.0
669.0
390.0
335.0
618.0
651.0
361.0
377.0
655.0
587.0
334.0
430.0
679.0
551.0
305.0
453.0
707.0
527.0
323.0
492.0
677.0
460.0
339.0
564.0
666.0
413.0
354.0
609.0
657.0
383.0
348.0
626.0
629.0
358.0
398.0
675.0
602.0
311.0
413.0
705.0
574.0
322.0
463.0
692.0
493.0
310.0
519.0
692.0
452.0
303.0
551.0
674.0
402.0
342.0
626.0
648.0
353.0
358.0
655.0
615.0
363.0
475.0
843.0
855.0
669.0
662.0
653.0
356.0
218.0
525.0
770.0
493.0
297.0
514.0
694.0
455.0
337.0
585.0
685.0
408.0
339.0
627.0
654.0
375.0
387.0
674.0
618.0
346.0
432.0
706.0
583.0
344.0
490.0
726.0
534.0
345.0
549.0
745.0
512.0
365.0
610.0
745.0
474.0
393.0
676.0
737.0
451.0
425.0
714.0
710.0
418.0
443.0
713.0
620.0
350.0
451.0
707.0
543.0
315.0
488.0
708.0
492.0
318.0
538.0
697.0
446.0
331.0
578.0
676.0
415.0
367.0
634.0
650.0
375.0
391.0
676.0
631.0
357.0
433.0
712.0
595.0
340.0
476.0
735.0
559.0
346.0
525.0
732.0
517.0
363.0
591.0
720.0
462.0
366.0
639.0
717.0
425.0
394.0
675.0
682.0
405.0
438.0
721.0
643.0
378.0
478.0
741.0
602.0
374.0
537.0
765.0
559.0
368.0
584.0
772.0
522.0
376.0
628.0
753.0
485.0
409.0
679.0
733.0
454.0
446.0
732.0
710.0
430.0
465.0
745.0
667.0
409.0
513.0
765.0
608.0
392.0
565.0
778.0
570.0
402.0
622.0
778.0
526.0
411.0
663.0
763.0
516.0
536.0
939.0
989.0
796.0
614.0
638.0
528.0
392.0
575.0
827.0
644.0
390.0
554.0
817.0
628.0
393.0
591.0
804.0
576.0
411.0
654.0
800.0
530.0
429.0
700.0
773.0
487.0
464.0
752.0
739.0
457.0
500.0
783.0
711.0
453.0
547.0
813.0
675.0
441.0
607.0
848.0
643.0
446.0
663.0
845.0
596.0
464.0
717.0
819.0
530.0
459.0
733.0
754.0
447.0
435.0
723.0
685.0
400.0
458.0
739.0
624.0
368.0
497.0
751.0
571.0
354.0
547.0
757.0
515.0
354.0
585.0
725.0
467.0
368.0
632.0
707.0
427.0
381.0
655.0
664.0
385.0
412.0
685.0
612.0
350.0
446.0
709.0
562.0
327.0
481.0
717.0
516.0
330.0
523.0
689.0
447.0
320.0
567.0
682.0
404.0
329.0
594.0
640.0
370.0
352.0
621.0
593.0
328.0
388.0
652.0
544.0
300.0
420.0
674.0
497.0
274.0
454.0
671.0
455.0
282.0
491.0
656.0
402.0
290.0
559.0
631.0
350.0
302.0
574.0
583.0
311.0
321.0
587.0
534.0
273.0
350.0
614.0
493.0
262.0
387.0
622.0
452.0
257.0
421.0
611.0
400.0
305.0
630.0
882.0
677.0
466.0
507.0
437.0
198.0
271.0
608.0
564.0
259.0
284.0
586.0
502.0
245.0
334.0
600.0
459.0
237.0
389.0
610.0
413.0
233.0
443.0
607.0
355.0
225.0
486.0
606.0
338.0
268.0
531.0
572.0
310.0
307.0
583.0
562.0
295.0
347.0
631.0
532.0
300.0
416.0
643.0
488.0
294.0
467.0
659.0
427.0
263.0
483.0
615.0
358.0
246.0
498.0
564.0
278.0
234.0
527.0
542.0
254.0
262.0
553.0
495.0
237.0
305.0
575.0
454.0
227.0
360.0
593.0
405.0
221.0
416.0
597.0
372.0
230.0
445.0
574.0
323.0
249.0
513.0
562.0
294.0
271.0
553.0
531.0
258.0
306.0
596.0
490.0
230.0
344.0
612.0
450.0
232.0
405.0
617.0
400.0
231.0
447.0
612.0
365.0
247.0
500.0
591.0
320.0
267.0
544.0
571.0
297.0
305.0
580.0
532.0
264.0
345.0
628.0
502.0
257.0
391.0
633.0
455.0
265.0
464.0
657.0
420.0
262.0
489.0
631.0
377.0
288.0
543.0
600.0
331.0
304.0
590.0
578.0
302.0
349.0
634.0
552.0
286.0
381.0
644.0
506.0
341.0
600.0
938.0
775.0
447.0
433.0
506.0
336.0
319.0
584.0
651.0
356.0
298.0
588.0
628.0
342.0
337.0
625.0
589.0
315.0
386.0
665.0
551.0
304.0
439.0
697.0
512.0
289.0
483.0
708.0
480.0
308.0
538.0
702.0
448.0
347.0
612.0
699.0
417.0
380.0
672.0
684.0
404.0
430.0
721.0
661.0
384.0
476.0
747.0
609.0
355.0
497.0
727.0
527.0
321.0
509.0
689.0
453.0
314.0
551.0
674.0
407.0
333.0
601.0
650.0
370.0
359.0
644.0
626.0
348.0
392.0
671.0
581.0
332.0
446.0
701.0
545.0
328.0
495.0
713.0
509.0
331.0
545.0
705.0
462.0
351.0
597.0
684.0
411.0
367.0
646.0
672.0
381.0
391.0
684.0
638.0
363.0
432.0
709.0
596.0
356.0
484.0
724.0
540.0
342.0
542.0
740.0
502.0
347.0
583.0
726.0
464.0
367.0
632.0
711.0
430.0
394.0
675.0
674.0
394.0
431.0
710.0
642.0
380.0
472.0
736.0
616.0
378.0
518.0
745.0
546.0
358.0
566.0
743.0
495.0
355.0
608.0
733.0
456.0
376.0
654.0
709.0
426.0
413.0
687.0
662.0
405.0
510.0
895.0
905.0
678.0
686.0
728.0
430.0
265.0
560.0
813.0
547.0
336.0
574.0
756.0
496.0
374.0
629.0
727.0
457.0
395.0
668.0
689.0
419.0
439.0
718.0
658.0
392.0
478.0
748.0
626.0
375.0
526.0
769.0
587.0
385.0
586.0
781.0
545.0
401.0
651.0
784.0
517.0
435.0
703.0
769.0
486.0
471.0
762.0
738.0
440.0
479.0
764.0
656.0
367.0
472.0
746.0
599.0
348.0
497.0
729.0
528.0
363.0
562.0
706.0
456.0
356.0
610.0
702.0
432.0
381.0
659.0
679.0
389.0
396.0
710.0
657.0
368.0
434.0
709.0
600.0
348.0
479.0
737.0
566.0
325.0
514.0
738.0
521.0
343.0
562.0
731.0
460.0
356.0
629.0
698.0
406.0
381.0
658.0
662.0
379.0
409.0
694.0
624.0
355.0
448.0
718.0
576.0
345.0
494.0
719.0
532.0
342.0
536.0
729.0
479.0
340.0
570.0
694.0
434.0
367.0
636.0
678.0
388.0
386.0
681.0
666.0
373.0
410.0
691.0
599.0
343.0
441.0
697.0
547.0
338.0
493.0
696.0
491.0
338.0
560.0
698.0
442.0
329.0
588.0
687.0
438.0
447.0
840.0
958.0
648.0
452.0
538.0
471.0
317.0
471.0
724.0
550.0
303.0
455.0
704.0
514.0
305.0
509.0
704.0
466.0
310.0
546.0
691.0
433.0
336.0
598.0
668.0
390.0
362.0
637.0
638.0
361.0
389.0
681.0
606.0
339.0
435.0
708.0
570.0
344.0
498.0
727.0
534.0
356.0
563.0
732.0
496.0
370.0
611.0
711.0
442.0
364.0
620.0
643.0
355.0
347.0
622.0
584.0
313.0
363.0
639.0
536.0
287.0
394.0
648.0
494.0
288.0
447.0
654.0
448.0
292.0
503.0
650.0
393.0
289.0
551.0
640.0
366.0
317.0
584.0
605.0
336.0
351.0
630.0
566.0
304.0
391.0
658.0
529.0
299.0
444.0
673.0
483.0
291.0
489.0
676.0
442.0
299.0
535.0
659.0
402.0
324.0
590.0
639.0
368.0
348.0
628.0
618.0
347.0
384.0
647.0
572.0
334.0
440.0
684.0
526.0
314.0
486.0
704.0
496.0
316.0
531.0
703.0
461.0
352.0
600.0
679.0
398.0
360.0
642.0
657.0
360.0
372.0
663.0
618.0
344.0
414.0
697.0
590.0
334.0
466.0
712.0
536.0
336.0
537.0
803.0
688.0
610.0
848.0
846.0
356.0
177.0
553.0
750.0
459.0
361.0
627.0
656.0
392.0
416.0
687.0
606.0
353.0
461.0
723.0
573.0
344.0
506.0
737.0
531.0
343.0
558.0
743.0
490.0
351.0
607.0
734.0
462.0
381.0
660.0
721.0
435.0
422.0
718.0
695.0
415.0
474.0
757.0
663.0
404.0
523.0
782.0
614.0
386.0
563.0
766.0
534.0
355.0
570.0
715.0
450.0
341.0
591.0
675.0
392.0
345.0
621.0
641.0
360.0
373.0
655.0
604.0
336.0
410.0
678.0
562.0
319.0
452.0
692.0
507.0
315.0
505.0
692.0
460.0
316.0
554.0
680.0
409.0
323.0
584.0
657.0
382.0
351.0
623.0
614.0
352.0
392.0
655.0
569.0
317.0
423.0
679.0
530.0
311.0
474.0
690.0
475.0
300.0
511.0
685.0
439.0
320.0
573.0
686.0
397.0
321.0
611.0
668.0
382.0
368.0
638.0
588.0
316.0
391.0
662.0
538.0
293.0
426.0
671.0
501.0
288.0
478.0
694.0
451.0
278.0
508.0
659.0
410.0
349.0
702.0
883.0
667.0
559.0
641.0
487.0
213.0
328.0
687.0
609.0
299.0
378.0
665.0
531.0
294.0
444.0
682.0
476.0
286.0
496.0
698.0
439.0
276.0
535.0
682.0
407.0
334.0
589.0
635.0
365.0
361.0
644.0
632.0
342.0
398.0
691.0
597.0
336.0
451.0
719.0
571.0
354.0
524.0
719.0
509.0
351.0
579.0
747.0
486.0
337.0
585.0
681.0
412.0
328.0
587.0
615.0
339.0
353.0
635.0
568.0
295.0
381.0
662.0
540.0
304.0
418.0
648.0
478.0
296.0
494.0
685.0
426.0
282.0
533.0
670.0
394.0
310.0
582.0
618.0
349.0
340.0
624.0
620.0
330.0
349.0
640.0
575.0
321.0
406.0
660.0
520.0
304.0
468.0
682.0
470.0
288.0
505.0
676.0
428.0
304.0
554.0
663.0
396.0
333.0
617.0
662.0
375.0
361.0
620.0
576.0
324.0
386.0
653.0
536.0
291.0
420.0
680.0
511.0
297.0
470.0
680.0
460.0
292.0
512.0
672.0
425.0
357.0
705.0
909.0
689.0
540.0
605.0
472.0
237.0
369.0
700.0
598.0
298.0
388.0
682.0
549.0
303.0
450.0
688.0
494.0
299.0
497.0
692.0
458.0
322.0
555.0
674.0
418.0
343.0
606.0
664.0
388.0
374.0
655.0
636.0
369.0
419.0
700.0
616.0
358.0
472.0
733.0
587.0
364.0
531.0
751.0
544.0
369.0
590.0
750.0
486.0
355.0
605.0
694.0
411.0
342.0
606.0
630.0
355.0
361.0
635.0
589.0
325.0
391.0
661.0
545.0
306.0
433.0
674.0
494.0
295.0
488.0
679.0
453.0
307.0
528.0
667.0
414.0
323.0
577.0
647.0
372.0
341.0
618.0
625.0
348.0
372.0
651.0
581.0
327.0
416.0
670.0
538.0
318.0
467.0
685.0
492.0
307.0
504.0
677.0
444.0
318.0
559.0
675.0
415.0
338.0
609.0
668.0
400.0
373.0
628.0
602.0
343.0
390.0
651.0
552.0
317.0
434.0
676.0
508.0
302.0
480.0
682.0
470.0
310.0
531.0
671.0
431.0
364.0
712.0
929.0
706.0
557.0
621.0
497.0
244.0
359.0
701.0
624.0
319.0
386.0
673.0
564.0
319.0
446.0
689.0
514.0
306.0
489.0
699.0
477.0
318.0
549.0
685.0
420.0
336.0
610.0
672.0
393.0
367.0
648.0
644.0
366.0
412.0
701.0
623.0
357.0
459.0
727.0
589.0
357.0
525.0
753.0
545.0
365.0
577.0
747.0
496.0
365.0
589.0
681.0
403.0
334.0
606.0
639.0
347.0
338.0
628.0
596.0
317.0
379.0
658.0
542.0
293.0
416.0
672.0
503.0
300.0
476.0
674.0
449.0
309.0
533.0
671.0
419.0
301.0
554.0
655.0
370.0
322.0
607.0
619.0
344.0
365.0
644.0
573.0
314.0
405.0
666.0
534.0
311.0
456.0
664.0
481.0
311.0
500.0
669.0
443.0
300.0
531.0
659.0
415.0
331.0
589.0
644.0
386.0
375.0
638.0
602.0
320.0
367.0
655.0
567.0
305.0
403.0
659.0
518.0
293.0
452.0
674.0
469.0
291.0
502.0
682.0
427.0
289.0
557.0
734.0
565.0
595.0
908.0
820.0
288.0
149.0
540.0
655.0
384.0
367.0
624.0
560.0
316.0
406.0
658.0
526.0
308.0
455.0
670.0
477.0
309.0
509.0
674.0
443.0
321.0
564.0
656.0
406.0
344.0
604.0
648.0
387.0
383.0
647.0
605.0
365.0
457.0
718.0
581.0
342.0
494.0
739.0
553.0
356.0
553.0
735.0
503.0
365.0
601.0
712.0
435.0
355.0
603.0
638.0
366.0
361.0
632.0
588.0
313.0
387.0
669.0
549.0
288.0
432.0
690.0
504.0
281.0
483.0
692.0
455.0
296.0
534.0
684.0
410.0
312.0
593.0
669.0
368.0
330.0
626.0
634.0
346.0
382.0
661.0
583.0
313.0
418.0
693.0
539.0
295.0
465.0
712.0
496.0
293.0
509.0
704.0
446.0
300.0
566.0
696.0
406.0
323.0
609.0
667.0
375.0
367.0
672.0
646.0
346.0
403.0
684.0
576.0
307.0
439.0
692.0
514.0
298.0
490.0
703.0
472.0
299.0
543.0
701.0
421.0
313.0
596.0
687.0
376.0
350.0
724.0
877.0
654.0
644.0
774.0
520.0
178.0
345.0
738.0
613.0
304.0
435.0
711.0
525.0
310.0
507.0
711.0
470.0
315.0
567.0
712.0
433.0
342.0
606.0
672.0
394.0
373.0
671.0
666.0
365.0
403.0
703.0
625.0
351.0
461.0
739.0
589.0
352.0
539.0
766.0
548.0
358.0
595.0
787.0
512.0
367.0
644.0
767.0
465.0
390.0
672.0
698.0
387.0
377.0
676.0
629.0
337.0
402.0
692.0
573.0
302.0
444.0
716.0
523.0
293.0
497.0
725.0
493.0
304.0
534.0
698.0
435.0
335.0
600.0
680.0
391.0
355.0
635.0
641.0
356.0
390.0
685.0
601.0
314.0
422.0
714.0
565.0
310.0
473.0
721.0
511.0
299.0
516.0
722.0
464.0
309.0
571.0
706.0
415.0
333.0
617.0
668.0
374.0
368.0
670.0
636.0
335.0
395.0
692.0
596.0
321.0
450.0
725.0
555.0
324.0
513.0
747.0
510.0
313.0
542.0
717.0
443.0
312.0
575.0
683.0
396.0
335.0
627.0
658.0
361.0
372.0
671.0
625.0
339.0
406.0
688.0
579.0
378.0
630.0
987.0
845.0
503.0
480.0
569.0
383.0
337.0
617.0
724.0
404.0
324.0
626.0
701.0
386.0
337.0
652.0
666.0
361.0
390.0
691.0
622.0
340.0
449.0
726.0
576.0
323.0
493.0
744.0
533.0
332.0
559.0
753.0
490.0
351.0
617.0
753.0
455.0
380.0
680.0
737.0
434.0
420.0
722.0
705.0
409.0
462.0
756.0
649.0
362.0
484.0
742.0
554.0
311.0
500.0
731.0
493.0
301.0
532.0
705.0
438.0
315.0
590.0
687.0
387.0
337.0
634.0
657.0
355.0
372.0
672.0
621.0
336.0
417.0
691.0
570.0
322.0
469.0
719.0
527.0
308.0
512.0
724.0
477.0
314.0
568.0
708.0
432.0
332.0
619.0
686.0
383.0
355.0
659.0
649.0
349.0
395.0
690.0
596.0
318.0
432.0
721.0
559.0
306.0
486.0
724.0
506.0
311.0
540.0
723.0
451.0
312.0
589.0
696.0
400.0
347.0
647.0
678.0
374.0
376.0
696.0
655.0
343.0
394.0
689.0
589.0
320.0
435.0
699.0
532.0
316.0
504.0
713.0
491.0
307.0
530.0
705.0
463.0
320.0
565.0
686.0
460.0
473.0
859.0
965.0
635.0
416.0
529.0
498.0
342.0
476.0
725.0
558.0
305.0
457.0
714.0
547.0
328.0
503.0
710.0
497.0
332.0
543.0
694.0
465.0
360.0
606.0
691.0
419.0
378.0
650.0
669.0
393.0
409.0
689.0
641.0
393.0
469.0
726.0
599.0
371.0
535.0
765.0
568.0
374.0
595.0
774.0
524.0
384.0
635.0
760.0
476.0
376.0
622.0
696.0
411.0
368.0
647.0
625.0
354.0
397.0
673.0
578.0
324.0
438.0
694.0
537.0
316.0
467.0
690.0
507.0
322.0
522.0
692.0
458.0
339.0
592.0
687.0
405.0
350.0
638.0
665.0
396.0
395.0
663.0
614.0
349.0
440.0
707.0
601.0
345.0
466.0
713.0
562.0
345.0
525.0
731.0
492.0
341.0
577.0
732.0
465.0
369.0
627.0
716.0
436.0
382.0
663.0
687.0
413.0
433.0
714.0
661.0
405.0
495.0
752.0
614.0
395.0
557.0
786.0
590.0
376.0
572.0
773.0
539.0
380.0
624.0
763.0
503.0
407.0
677.0
750.0
477.0
450.0
721.0
704.0
433.0
479.0
766.0
694.0
484.0
689.0
995.0
942.0
649.0
543.0
628.0
508.0
443.0
667.0
801.0
535.0
416.0
684.0
792.0
510.0
444.0
727.0
769.0
483.0
476.0
771.0
738.0
460.0
520.0
806.0
699.0
441.0
566.0
827.0
662.0
445.0
625.0
844.0
633.0
464.0
690.0
844.0
588.0
479.0
747.0
845.0
568.0
520.0
802.0
818.0
536.0
548.0
838.0
782.0
495.0
554.0
826.0
684.0
431.0
573.0
810.0
620.0
423.0
610.0
793.0
566.0
417.0
658.0
789.0
522.0
431.0
697.0
757.0
479.0
458.0
740.0
717.0
446.0
494.0
773.0
673.0
411.0
531.0
794.0
630.0
402.0
578.0
792.0
588.0
401.0
607.0
776.0
531.0
411.0
669.0
767.0
475.0
412.0
697.0
732.0
439.0
445.0
727.0
677.0
398.0
484.0
762.0
636.0
381.0
512.0
750.0
582.0
379.0
558.0
742.0
521.0
374.0
614.0
762.0
492.0
398.0
661.0
731.0
442.0
395.0
678.0
682.0
381.0
399.0
691.0
631.0
367.0
444.0
698.0
567.0
348.0
502.0
725.0
543.0
332.0
506.0
699.0
520.0
484.0
838.0
985.0
674.0
370.0
470.0
537.0
392.0
442.0
679.0
605.0
334.0
399.0
685.0
579.0
321.0
441.0
687.0
531.0
318.0
482.0
692.0
485.0
316.0
533.0
681.0
445.0
324.0
573.0
661.0
395.0
355.0
622.0
635.0
368.0
390.0
665.0
612.0
345.0
429.0
705.0
580.0
338.0
477.0
719.0
547.0
345.0
524.0
696.0
466.0
307.0
519.0
643.0
392.0
288.0
536.0
592.0
329.0
303.0
565.0
550.0
286.0
317.0
595.0
521.0
259.0
349.0
614.0
475.0
253.0
400.0
618.0
426.0
250.0
452.0
621.0
377.0
249.0
499.0
612.0
337.0
261.0
535.0
583.0
305.0
288.0
564.0
535.0
278.0
328.0
591.0
492.0
255.0
365.0
610.0
449.0
248.0
414.0
611.0
404.0
240.0
460.0
607.0
361.0
252.0
499.0
587.0
329.0
269.0
540.0
558.0
290.0
307.0
585.0
532.0
278.0
354.0
622.0
501.0
261.0
381.0
611.0
435.0
241.0
416.0
604.0
378.0
246.0
477.0
601.0
343.0
256.0
524.0
578.0
297.0
277.0
561.0
551.0
289.0
379.0
767.0
797.0
554.0
526.0
570.0
324.0
165.0
426.0
674.0
434.0
228.0
457.0
628.0
370.0
235.0
496.0
617.0
342.0
271.0
543.0
586.0
312.0
304.0
582.0
548.0
293.0
357.0
620.0
513.0
275.0
399.0
643.0
476.0
275.0
466.0
667.0
447.0
294.0
523.0
672.0
432.0
336.0
578.0
654.0
392.0
354.0
632.0
636.0
351.0
362.0
632.0
547.0
281.0
367.0
622.0
492.0
254.0
387.0
626.0
448.0
258.0
430.0
604.0
389.0
266.0
494.0
603.0
349.0
278.0
539.0
586.0
322.0
310.0
574.0
555.0
288.0
350.0
614.0
515.0
272.0
378.0
637.0
489.0
266.0
422.0
630.0
430.0
265.0
477.0
637.0
393.0
274.0
523.0
616.0
354.0
292.0
563.0
591.0
316.0
315.0
607.0
563.0
294.0
360.0
635.0
509.0
273.0
409.0
656.0
472.0
271.0
461.0
653.0
424.0
279.0
509.0
634.0
391.0
300.0
552.0
621.0
365.0
342.0
611.0
624.0
347.0
345.0
608.0
559.0
321.0
406.0
633.0
475.0
272.0
429.0
658.0
465.0
275.0
475.0
657.0
419.0
286.0
523.0
633.0
387.0
342.0
680.0
847.0
644.0
581.0
686.0
476.0
187.0
334.0
692.0
583.0
288.0
394.0
660.0
518.0
292.0
455.0
666.0
463.0
299.0
510.0
662.0
425.0
313.0
558.0
658.0
400.0
340.0
596.0
634.0
377.0
388.0
647.0
594.0
342.0
423.0
691.0
575.0
345.0
483.0
719.0
544.0
351.0
548.0
741.0
509.0
350.0
593.0
728.0
465.0
363.0
611.0
662.0
383.0
350.0
621.0
616.0
337.0
355.0
635.0
562.0
306.0
398.0
655.0
526.0
295.0
435.0
669.0
489.0
305.0
492.0
667.0
442.0
320.0
551.0
655.0
396.0
335.0
602.0
642.0
363.0
354.0
637.0
613.0
346.0
391.0
655.0
560.0
329.0
448.0
681.0
529.0
318.0
481.0
684.0
481.0
324.0
541.0
682.0
440.0
334.0
573.0
663.0
402.0
353.0
620.0
640.0
367.0
379.0
655.0
607.0
352.0
420.0
673.0
555.0
342.0
479.0
706.0
528.0
342.0
528.0
729.0
484.0
319.0
553.0
695.0
432.0
335.0
595.0
668.0
392.0
362.0
628.0
628.0
372.0
412.0
667.0
587.0
336.0
428.0
693.0
600.0
447.0
698.0
991.0
794.0
411.0
410.0
572.0
438.0
365.0
595.0
689.0
428.0
360.0
614.0
662.0
388.0
388.0
666.0
629.0
363.0
428.0
699.0
590.0
353.0
468.0
710.0
548.0
343.0
524.0
725.0
502.0
346.0
575.0
727.0
470.0
374.0
631.0
720.0
451.0
412.0
701.0
720.0
428.0
441.0
729.0
678.0
413.0
500.0
757.0
626.0
370.0
497.0
736.0
547.0
337.0
518.0
705.0
479.0
330.0
564.0
683.0
415.0
327.0
602.0
663.0
398.0
364.0
632.0
625.0
366.0
398.0
663.0
584.0
342.0
446.0
684.0
531.0
336.0
493.0
701.0
494.0
328.0
536.0
703.0
462.0
340.0
581.0
671.0
410.0
357.0
621.0
661.0
385.0
369.0
646.0
616.0
364.0
425.0
682.0
568.0
337.0
457.0
688.0
534.0
339.0
503.0
688.0
480.0
343.0
564.0
695.0
440.0
346.0
600.0
675.0
412.0
372.0
651.0
673.0
390.0
384.0
657.0
598.0
341.0
422.0
681.0
559.0
327.0
460.0
684.0
513.0
318.0
507.0
694.0
465.0
319.0
555.0
681.0
446.0
428.0
807.0
968.0
689.0
473.0
546.0
479.0
311.0
446.0
714.0
574.0
311.0
440.0
700.0
545.0
313.0
477.0
701.0
506.0
318.0
526.0
692.0
451.0
332.0
571.0
678.0
418.0
355.0
626.0
659.0
387.0
398.0
672.0
632.0
373.0
442.0
711.0
607.0
370.0
497.0
742.0
584.0
372.0
549.0
760.0
550.0
386.0
601.0
748.0
491.0
368.0
609.0
679.0
407.0
362.0
623.0
628.0
350.0
368.0
651.0
593.0
322.0
400.0
666.0
543.0
316.0
459.0
686.0
491.0
308.0
502.0
684.0
449.0
316.0
562.0
674.0
407.0
335.0
597.0
649.0
380.0
359.0
637.0
617.0
344.0
386.0
664.0
588.0
337.0
440.0
674.0
520.0
320.0
490.0
695.0
482.0
327.0
543.0
691.0
437.0
322.0
581.0
681.0
405.0
348.0
626.0
645.0
372.0
376.0
658.0
610.0
352.0
430.0
690.0
574.0
346.0
488.0
723.0
531.0
316.0
500.0
703.0
478.0
322.0
543.0
671.0
416.0
336.0
601.0
660.0
388.0
367.0
635.0
629.0
355.0
388.0
668.0
633.0
446.0
652.0
989.0
836.0
404.0
348.0
562.0
498.0
386.0
559.0
685.0
449.0
339.0
587.0
695.0
424.0
349.0
624.0
665.0
395.0
391.0
663.0
635.0
367.0
436.0
702.0
595.0
353.0
486.0
732.0
567.0
353.0
536.0
747.0
536.0
371.0
593.0
749.0
498.0
396.0
657.0
757.0
478.0
420.0
705.0
732.0
450.0
459.0
736.0
683.0
401.0
457.0
723.0
590.0
349.0
479.0
711.0
532.0
331.0
519.0
711.0
476.0
332.0
568.0
700.0
444.0
354.0
607.0
670.0
407.0
382.0
656.0
653.0
386.0
414.0
682.0
614.0
361.0
453.0
708.0
566.0
344.0
504.0
724.0
523.0
345.0
558.0
721.0
469.0
342.0
599.0
710.0
435.0
365.0
637.0
687.0
404.0
394.0
668.0
644.0
384.0
432.0
691.0
600.0
363.0
482.0
720.0
552.0
355.0
523.0
723.0
504.0
351.0
574.0
714.0
457.0
352.0
615.0
709.0
429.0
380.0
661.0
673.0
395.0
430.0
719.0
646.0
369.0
434.0
709.0
585.0
345.0
477.0
708.0
530.0
344.0
540.0
715.0
472.0
336.0
589.0
715.0
438.0
346.0
622.0
705.0
489.0
566.0
947.0
938.0
531.0
343.0
537.0
536.0
384.0
503.0
710.0
542.0
335.0
507.0
716.0
511.0
340.0
550.0
703.0
464.0
357.0
607.0
701.0
440.0
370.0
621.0
665.0
405.0
409.0
683.0
627.0
365.0
452.0
727.0
607.0
361.0
493.0
746.0
584.0
372.0
552.0
767.0
542.0
380.0
609.0
755.0
505.0
402.0
655.0
721.0
443.0
393.0
663.0
647.0
368.0
395.0
671.0
582.0
314.0
415.0
681.0
545.0
307.0
452.0
681.0
498.0
312.0
502.0
678.0
454.0
324.0
547.0
655.0
405.0
336.0
603.0
645.0
358.0
342.0
630.0
609.0
337.0
383.0
662.0
574.0
319.0
431.0
673.0
520.0
306.0
469.0
682.0
476.0
302.0
515.0
676.0
438.0
318.0
552.0
648.0
393.0
335.0
599.0
622.0
356.0
369.0
649.0
584.0
307.0
392.0
674.0
553.0
300.0
433.0
688.0
510.0
303.0
477.0
679.0
466.0
316.0
539.0
679.0
435.0
344.0
594.0
646.0
376.0
346.0
612.0
607.0
337.0
366.0
644.0
566.0
314.0
399.0
665.0
538.0
309.0
445.0
670.0
489.0
295.0
497.0
736.0
604.0
561.0
838.0
870.0
387.0
160.0
472.0
658.0
429.0
365.0
603.0
592.0
345.0
393.0
661.0
562.0
317.0
431.0
682.0
528.0
319.0
473.0
695.0
497.0
324.0
530.0
689.0
452.0
344.0
588.0
678.0
414.0
373.0
644.0
666.0
398.0
412.0
691.0
646.0
387.0
464.0
731.0
621.0
384.0
510.0
750.0
585.0
374.0
544.0
739.0
507.0
339.0
564.0
693.0
431.0
336.0
583.0
645.0
378.0
347.0
614.0
618.0
354.0
384.0
642.0
571.0
337.0
424.0
672.0
540.0
320.0
466.0
692.0
504.0
312.0
508.0
687.0
449.0
325.0
575.0
678.0
399.0
336.0
602.0
653.0
373.0
363.0
640.0
606.0
345.0
403.0
666.0
562.0
324.0
443.0
697.0
533.0
310.0
476.0
695.0
492.0
326.0
523.0
683.0
447.0
344.0
587.0
663.0
396.0
353.0
629.0
641.0
364.0
386.0
676.0
599.0
328.0
424.0
692.0
576.0
339.0
462.0
710.0
546.0
342.0
520.0
697.0
462.0
330.0
557.0
669.0
401.0
336.0
609.0
656.0
375.0
357.0
638.0
632.0
350.0
385.0
666.0
578.0
339.0
470.0
818.0
790.0
608.0
694.0
719.0
368.0
193.0
512.0
748.0
475.0
311.0
553.0
677.0
413.0
332.0
609.0
654.0
384.0
368.0
644.0
627.0
354.0
411.0
687.0
577.0
332.0
467.0
700.0
542.0
340.0
513.0
719.0
518.0
350.0
553.0
719.0
486.0
371.0
626.0
718.0
453.0
397.0
681.0
701.0
431.0
445.0
716.0
661.0
384.0
464.0
733.0
596.0
333.0
442.0
690.0
519.0
322.0
515.0
670.0
427.0
304.0
547.0
666.0
394.0
318.0
589.0
643.0
358.0
345.0
630.0
605.0
345.0
391.0
646.0
561.0
324.0
423.0
666.0
521.0
312.0
469.0
684.0
481.0
303.0
509.0
678.0
438.0
321.0
558.0
645.0
390.0
338.0
596.0
628.0
361.0
360.0
623.0
588.0
330.0
404.0
667.0
543.0
291.0
424.0
689.0
513.0
300.0
470.0
670.0
471.0
319.0
527.0
673.0
423.0
331.0
595.0
677.0
404.0
339.0
598.0
617.0
360.0
358.0
628.0
591.0
326.0
391.0
658.0
540.0
296.0
439.0
679.0
495.0
308.0
504.0
661.0
455.0
394.0
758.0
979.0
690.0
401.0
490.0
515.0
335.0
400.0
668.0
604.0
313.0
378.0
675.0
574.0
307.0
424.0
692.0
541.0
311.0
474.0
696.0
492.0
307.0
524.0
700.0
444.0
329.0
577.0
683.0
415.0
356.0
639.0
667.0
379.0
389.0
691.0
646.0
365.0
436.0
723.0
629.0
372.0
495.0
743.0
574.0
360.0
549.0
736.0
511.0
359.0
567.0
701.0
422.0
312.0
581.0
656.0
375.0
320.0
598.0
622.0
349.0
358.0
624.0
553.0
310.0
413.0
674.0
521.0
301.0
454.0
666.0
476.0
318.0
513.0
675.0
427.0
306.0
542.0
674.0
415.0
316.0
586.0
629.0
358.0
366.0
629.0
592.0
339.0
387.0
658.0
574.0
317.0
408.0
657.0
547.0
312.0
447.0
679.0
480.0
318.0
527.0
675.0
425.0
307.0
565.0
655.0
377.0
341.0
623.0
645.0
350.0
355.0
646.0
622.0
372.0
405.0
628.0
528.0
327.0
460.0
656.0
476.0
291.0
486.0
669.0
446.0
308.0
525.0
645.0
404.0
326.0
567.0
633.0
381.0
389.0
744.0
871.0
654.0
583.0
654.0
423.0
208.0
420.0
726.0
543.0
284.0
446.0
689.0
497.0
312.0
508.0
673.0
442.0
318.0
565.0
674.0
395.0
332.0
606.0
650.0
363.0
359.0
653.0
628.0
348.0
406.0
680.0
579.0
333.0
464.0
721.0
550.0
344.0
528.0
732.0
518.0
355.0
585.0
744.0
489.0
370.0
628.0
719.0
449.0
381.0
638.0
649.0
369.0
379.0
647.0
585.0
317.0
394.0
652.0
534.0
305.0
435.0
666.0
482.0
298.0
483.0
669.0
448.0
306.0
530.0
652.0
414.0
323.0
577.0
633.0
370.0
352.0
619.0
599.0
337.0
387.0
652.0
557.0
317.0
424.0
679.0
527.0
310.0
462.0
674.0
479.0
304.0
510.0
679.0
437.0
320.0
555.0
655.0
391.0
338.0
608.0
630.0
356.0
357.0
634.0
601.0
342.0
389.0
655.0
562.0
332.0
459.0
690.0
526.0
334.0
507.0
682.0
458.0
318.0
536.0
655.0
409.0
316.0
578.0
654.0
376.0
338.0
611.0
613.0
355.0
384.0
650.0
570.0
316.0
420.0
733.0
701.0
563.0
754.0
912.0
499.0
152.0
391.0
718.0
528.0
347.0
514.0
654.0
429.0
351.0
608.0
646.0
370.0
367.0
655.0
631.0
348.0
400.0
699.0
611.0
336.0
445.0
719.0
558.0
349.0
518.0
717.0
534.0
370.0
569.0
726.0
491.0
386.0
634.0
748.0
481.0
416.0
682.0
720.0
454.0
463.0
739.0
688.0
420.0
490.0
757.0
621.0
378.0
500.0
724.0
549.0
344.0
531.0
709.0
487.0
346.0
578.0
718.0
458.0
354.0
608.0
692.0
458.0
377.0
641.0
669.0
408.0
430.0
696.0
618.0
374.0
484.0
739.0
600.0
355.0
501.0
742.0
567.0
370.0
557.0
736.0
509.0
380.0
620.0
733.0
468.0
407.0
676.0
716.0
438.0
411.0
695.0
688.0
416.0
472.0
742.0
639.0
380.0
502.0
778.0
615.0
388.0
536.0
749.0
564.0
391.0
605.0
753.0
518.0
405.0
650.0
753.0
492.0
431.0
720.0
759.0
451.0
433.0
721.0
688.0
412.0
463.0
736.0
635.0
391.0
529.0
762.0
580.0
376.0
578.0
775.0
540.0
380.0
614.0
756.0
529.0
509.0
893.0
985.0
742.0
517.0
581.0
548.0
401.0
520.0
769.0
649.0
381.0
499.0
769.0
619.0
379.0
544.0
771.0
566.0
380.0
597.0
769.0
517.0
380.0
646.0
777.0
490.0
398.0
679.0
741.0
459.0
447.0
732.0
702.0
425.0
491.0
778.0
666.0
410.0
549.0
803.0
633.0
419.0
597.0
806.0
596.0
426.0
648.0
806.0
540.0
391.0
636.0
739.0
461.0
382.0
650.0
671.0
393.0
402.0
681.0
617.0
354.0
434.0
695.0
580.0
348.0
473.0
703.0
524.0
326.0
520.0
706.0
478.0
338.0
570.0
683.0
430.0
353.0
619.0
676.0
391.0
357.0
639.0
628.0
356.0
398.0
672.0
591.0
330.0
433.0
687.0
541.0
317.0
470.0
693.0
493.0
315.0
521.0
683.0
443.0
315.0
561.0
660.0
395.0
341.0
606.0
634.0
357.0
362.0
643.0
604.0
349.0
404.0
663.0
570.0
335.0
455.0
672.0
500.0
308.0
472.0
654.0
441.0
299.0
516.0
645.0
398.0
306.0
560.0
634.0
364.0
324.0
588.0
593.0
313.0
366.0
716.0
754.0
569.0
664.0
801.0
449.0
120.0
347.0
715.0
525.0
269.0
458.0
656.0
429.0
283.0
526.0
650.0
382.0
288.0
555.0
622.0
353.0
332.0
610.0
592.0
329.0
362.0
630.0
548.0
312.0
412.0
674.0
517.0
302.0
462.0
677.0
480.0
308.0
525.0
700.0
460.0
335.0
572.0
677.0
422.0
368.0
646.0
651.0
353.0
369.0
666.0
600.0
303.0
365.0
630.0
507.0
273.0
395.0
626.0
452.0
257.0
439.0
626.0
405.0
256.0
484.0
623.0
371.0
269.0
523.0
605.0
338.0
299.0
564.0
569.0
311.0
335.0
600.0
535.0
285.0
367.0
623.0
489.0
273.0
422.0
634.0
439.0
264.0
462.0
636.0
403.0
271.0
502.0
623.0
363.0
283.0
545.0
589.0
324.0
312.0
590.0
565.0
296.0
347.0
620.0
525.0
284.0
390.0
634.0
487.0
273.0
437.0
650.0
450.0
296.0
514.0
657.0
393.0
277.0
521.0
612.0
345.0
289.0
556.0
580.0
305.0
294.0
581.0
532.0
273.0
375.0
617.0
464.0
308.0
464.0
660.0
496.0
410.0
721.0
968.0
650.0
285.0
366.0
526.0
398.0
368.0
570.0
596.0
348.0
338.0
605.0
592.0
325.0
358.0
635.0
562.0
311.0
403.0
654.0
517.0
295.0
449.0
668.0
473.0
301.0
507.0
670.0
428.0
313.0
559.0
663.0
407.0
345.0
611.0
655.0
391.0
388.0
661.0
629.0
367.0
427.0
698.0
596.0
351.0
472.0
711.0
539.0
311.0
476.0
679.0
452.0
278.0
497.0
637.0
395.0
291.0
529.0
616.0
353.0
308.0
576.0
590.0
321.0
333.0
616.0
557.0
299.0
378.0
642.0
522.0
287.0
419.0
657.0
471.0
278.0
473.0
659.0
433.0
293.0
526.0
649.0
395.0
311.0
562.0
614.0
354.0
335.0
611.0
593.0
324.0
365.0
635.0
548.0
311.0
415.0
661.0
503.0
298.0
459.0
673.0
463.0
288.0
499.0
672.0
442.0
320.0
552.0
657.0
401.0
356.0
627.0
638.0
350.0
351.0
637.0
599.0
318.0
369.0
647.0
553.0
312.0
426.0
661.0
500.0
309.0
489.0
679.0
458.0
297.0
531.0
702.0
512.0
518.0
866.0
942.0
488.0
225.0
464.0
591.0
407.0
420.0
654.0
572.0
337.0
433.0
674.0
543.0
327.0
475.0
695.0
501.0
323.0
522.0
699.0
465.0
331.0
572.0
694.0
443.0
360.0
619.0
676.0
411.0
401.0
668.0
645.0
384.0
440.0
719.0
626.0
377.0
500.0
748.0
592.0
378.0
554.0
772.0
551.0
378.0
596.0
748.0
487.0
352.0
598.0
691.0
418.0
353.0
614.0
633.0
363.0
374.0
649.0
598.0
340.0
411.0
663.0
550.0
326.0
458.0
686.0
509.0
313.0
504.0
697.0
465.0
321.0
555.0
677.0
421.0
340.0
601.0
658.0
377.0
355.0
641.0
632.0
355.0
393.0
669.0
582.0
328.0
437.0
695.0
542.0
319.0
481.0
704.0
508.0
318.0
517.0
687.0
458.0
330.0
568.0
682.0
423.0
351.0
616.0
653.0
389.0
400.0
684.0
642.0
349.0
401.0
679.0
578.0
328.0
438.0
679.0
532.0
334.0
491.0
682.0
474.0
317.0
545.0
685.0
432.0
335.0
590.0
670.0
426.0
476.0
863.0
951.0
635.0
433.0
518.0
473.0
349.0
485.0
709.0
554.0
321.0
476.0
712.0
527.0
331.0
520.0
705.0
468.0
336.0
577.0
698.0
434.0
358.0
626.0
688.0
413.0
388.0
672.0
658.0
377.0
429.0
708.0
622.0
373.0
482.0
746.0
606.0
374.0
536.0
762.0
570.0
395.0
598.0
764.0
528.0
402.0
649.0
747.0
468.0
392.0
655.0
685.0
398.0
382.0
660.0
628.0
358.0
414.0
677.0
574.0
339.0
455.0
695.0
525.0
307.0
507.0
713.0
483.0
324.0
548.0
682.0
439.0
346.0
607.0
674.0
402.0
365.0
636.0
641.0
374.0
407.0
672.0
595.0
342.0
431.0
693.0
560.0
331.0
476.0
697.0
514.0
323.0
518.0
693.0
479.0
344.0
567.0
676.0
423.0
348.0
615.0
670.0
393.0
373.0
652.0
642.0
384.0
427.0
682.0
575.0
325.0
461.0
697.0
507.0
297.0
499.0
699.0
467.0
312.0
549.0
687.0
419.0
318.0
598.0
671.0
370.0
341.0
688.0
789.0
596.0
679.0
910.0
614.0
152.0
282.0
716.0
627.0
326.0
446.0
696.0
515.0
313.0
514.0
709.0
459.0
321.0
579.0
700.0
412.0
342.0
625.0
672.0
380.0
367.0
662.0
638.0
351.0
418.0
704.0
597.0
335.0
472.0
747.0
569.0
341.0
537.0
764.0
528.0
347.0
591.0
764.0
496.0
371.0
645.0
747.0
441.0
389.0
681.0
689.0
375.0
389.0
669.0
603.0
322.0
402.0
680.0
548.0
298.0
453.0
696.0
498.0
293.0
498.0
696.0
453.0
306.0
547.0
679.0
402.0
317.0
597.0
662.0
370.0
351.0
645.0
628.0
334.0
384.0
681.0
591.0
306.0
427.0
700.0
542.0
300.0
473.0
714.0
492.0
291.0
518.0
713.0
449.0
308.0
563.0
689.0
409.0
339.0
626.0
661.0
368.0
389.0
686.0
627.0
307.0
388.0
697.0
574.0
286.0
419.0
695.0
520.0
291.0
481.0
702.0
469.0
299.0
542.0
698.0
409.0
298.0
593.0
731.0
527.0
596.0
951.0
867.0
331.0
204.0
569.0
613.0
354.0
418.0
665.0
535.0
311.0
469.0
701.0
500.0
301.0
518.0
715.0
452.0
305.0
571.0
702.0
416.0
335.0
619.0
676.0
376.0
357.0
668.0
648.0
345.0
403.0
708.0
624.0
344.0
458.0
733.0
580.0
340.0
532.0
772.0
549.0
354.0
587.0
760.0
485.0
363.0
631.0
727.0
426.0
354.0
631.0
657.0
362.0
360.0
652.0
613.0
322.0
389.0
681.0
567.0
300.0
436.0
701.0
520.0
299.0
486.0
698.0
472.0
309.0
535.0
687.0
425.0
327.0
597.0
665.0
373.0
338.0
637.0
652.0
349.0
366.0
665.0
591.0
321.0
421.0
706.0
552.0
288.0
457.0
721.0
516.0
293.0
499.0
703.0
460.0
311.0
559.0
685.0
409.0
331.0
616.0
676.0
382.0
375.0
678.0
645.0
331.0
372.0
678.0
578.0
293.0
408.0
693.0
539.0
291.0
470.0
708.0
483.0
292.0
507.0
698.0
461.0
304.0
555.0
700.0
510.0
559.0
927.0
916.0
433.0
228.0
503.0
584.0
394.0
450.0
670.0
536.0
298.0
464.0
702.0
507.0
311.0
503.0
705.0
472.0
304.0
555.0
708.0
432.0
330.0
609.0
688.0
396.0
359.0
654.0
662.0
376.0
408.0
700.0
632.0
361.0
468.0
737.0
600.0
358.0
521.0
765.0
568.0
363.0
579.0
784.0
520.0
363.0
617.0
737.0
448.0
358.0
631.0
668.0
372.0
358.0
649.0
630.0
334.0
385.0
668.0
568.0
310.0
432.0
701.0
538.0
296.0
471.0
709.0
489.0
306.0
517.0
691.0
439.0
322.0
583.0
680.0
398.0
351.0
626.0
642.0
365.0
385.0
660.0
603.0
328.0
414.0
699.0
567.0
309.0
455.0
715.0
521.0
296.0
491.0
709.0
477.0
320.0
549.0
689.0
421.0
332.0
604.0
681.0
397.0
370.0
653.0
658.0
357.0
386.0
676.0
594.0
314.0
407.0
685.0
554.0
315.0
466.0
691.0
489.0
302.0
528.0
704.0
454.0
328.0
562.0
662.0
418.0
416.0
806.0
953.0
672.0
504.0
581.0
469.0
275.0
437.0
727.0
581.0
307.0
441.0
705.0
530.0
312.0
490.0
709.0
488.0
314.0
549.0
711.0
440.0
330.0
594.0
690.0
406.0
351.0
649.0
674.0
373.0
393.0
680.0
633.0
360.0
451.0
729.0
597.0
352.0
507.0
758.0
569.0
361.0
571.0
771.0
524.0
369.0
618.0
750.0
474.0
371.0
641.0
680.0
380.0
360.0
645.0
634.0
330.0
371.0
666.0
582.0
312.0
422.0
692.0
529.0
296.0
467.0
700.0
490.0
300.0
520.0
699.0
444.0
325.0
586.0
683.0
391.0
324.0
625.0
664.0
370.0
363.0
655.0
622.0
340.0
408.0
690.0
584.0
330.0
462.0
714.0
526.0
319.0
517.0
731.0
489.0
317.0
557.0
721.0
454.0
338.0
615.0
703.0
411.0
376.0
668.0
686.0
394.0
418.0
712.0
657.0
382.0
480.0
763.0
618.0
348.0
499.0
754.0
567.0
353.0
549.0
750.0
521.0
367.0
615.0
756.0
487.0
393.0
671.0
731.0
440.0
420.0
716.0
731.0
498.0
655.0
995.0
956.0
623.0
457.0
604.0
566.0
454.0
626.0
801.0
568.0
400.0
644.0
812.0
553.0
416.0
685.0
809.0
529.0
451.0
725.0
782.0
497.0
496.0
789.0
752.0
464.0
541.0
839.0
726.0
454.0
604.0
873.0
683.0
455.0
669.0
890.0
661.0
490.0
735.0
903.0
624.0
502.0
792.0
902.0
606.0
536.0
832.0
849.0
528.0
527.0
829.0
775.0
480.0
548.0
835.0
694.0
437.0
588.0
840.0
652.0
435.0
637.0
847.0
601.0
430.0
687.0
846.0
554.0
440.0
726.0
810.0
524.0
483.0
781.0
767.0
472.0
509.0
808.0
743.0
450.0
537.0
822.0
687.0
428.0
590.0
843.0
622.0
412.0
640.0
824.0
572.0
430.0
683.0
792.0
491.0
431.0
741.0
780.0
449.0
441.0
754.0
733.0
424.0
470.0
767.0
677.0
400.0
521.0
776.0
615.0
390.0
578.0
779.0
563.0
396.0
621.0
740.0
472.0
378.0
637.0
709.0
412.0
370.0
665.0
678.0
372.0
387.0
685.0
628.0
341.0
411.0
684.0
551.0
306.0
468.0
776.0
693.0
576.0
773.0
815.0
354.0
118.0
459.0
714.0
438.0
283.0
529.0
607.0
334.0
310.0
590.0
561.0
287.0
321.0
608.0
525.0
269.0
363.0
617.0
457.0
242.0
410.0
625.0
415.0
223.0
445.0
637.0
380.0
248.0
497.0
608.0
338.0
268.0
557.0
591.0
303.0
302.0
596.0
556.0
275.0
347.0
624.0
503.0
249.0
371.0
612.0
412.0
192.0
377.0
581.0
339.0
163.0
397.0
547.0
285.0
176.0
440.0
507.0
242.0
205.0
483.0
481.0
204.0
228.0
517.0
455.0
182.0
254.0
543.0
415.0
171.0
307.0
552.0
365.0
165.0
362.0
555.0
316.0
163.0
415.0
546.0
271.0
184.0
459.0
520.0
244.0
219.0
504.0
483.0
212.0
242.0
539.0
456.0
192.0
289.0
552.0
402.0
184.0
351.0
568.0
360.0
188.0
405.0
561.0
303.0
179.0
450.0
568.0
295.0
228.0
505.0
545.0
272.0
271.0
543.0
480.0
209.0
281.0
564.0
437.0
186.0
317.0
586.0
405.0
181.0
368.0
582.0
355.0
197.0
442.0
591.0
320.0
213.0
488.0
609.0
427.0
501.0
852.0
784.0
265.0
121.0
457.0
521.0
302.0
346.0
580.0
452.0
240.0
397.0
616.0
410.0
240.0
449.0
629.0
379.0
241.0
497.0
617.0
356.0
277.0
548.0
593.0
320.0
315.0
603.0
570.0
299.0
360.0
644.0
545.0
297.0
422.0
686.0
523.0
300.0
481.0
702.0
490.0
316.0
545.0
709.0
462.0
332.0
589.0
672.0
383.0
321.0
599.0
604.0
312.0
331.0
616.0
545.0
276.0
361.0
632.0
528.0
267.0
385.0
650.0
487.0
271.0
455.0
640.0
409.0
273.0
527.0
654.0
371.0
280.0
562.0
635.0
355.0
320.0
588.0
591.0
312.0
347.0
646.0
565.0
293.0
392.0
665.0
523.0
305.0
450.0
668.0
470.0
287.0
498.0
675.0
425.0
298.0
541.0
653.0
390.0
331.0
599.0
629.0
355.0
351.0
636.0
602.0
326.0
400.0
674.0
576.0
333.0
453.0
675.0
491.0
310.0
492.0
665.0
440.0
299.0
530.0
674.0
408.0
312.0
566.0
643.0
375.0
347.0
628.0
617.0
323.0
367.0
703.0
737.0
567.0
696.0
889.0
558.0
170.0
341.0
690.0
536.0
305.0
489.0
685.0
464.0
324.0
550.0
666.0
406.0
336.0
617.0
663.0
363.0
352.0
648.0
642.0
361.0
397.0
681.0
588.0
336.0
453.0
726.0
577.0
331.0
495.0
728.0
528.0
348.0
564.0
734.0
494.0
373.0
625.0
733.0
460.0
397.0
673.0
715.0
431.0
423.0
694.0
646.0
352.0
416.0
682.0
566.0
319.0
445.0
681.0
505.0
297.0
487.0
687.0
460.0
299.0
527.0
670.0
416.0
322.0
582.0
651.0
368.0
339.0
631.0
627.0
347.0
380.0
653.0
574.0
322.0
426.0
687.0
542.0
311.0
460.0
695.0
497.0
301.0
512.0
695.0
458.0
315.0
555.0
677.0
417.0
335.0
607.0
655.0
366.0
362.0
650.0
619.0
339.0
391.0
679.0
596.0
324.0
413.0
668.0
542.0
339.0
492.0
692.0
479.0
326.0
557.0
708.0
462.0
351.0
594.0
665.0
391.0
343.0
625.0
646.0
351.0
365.0
644.0
597.0
330.0
409.0
680.0
563.0
327.0
460.0
697.0
502.0
300.0
533.0
819.0
690.0
601.0
823.0
789.0
330.0
170.0
534.0
717.0
438.0
363.0
610.0
622.0
366.0
403.0
682.0
593.0
336.0
439.0
700.0
562.0
332.0
476.0
709.0
525.0
335.0
531.0
714.0
481.0
338.0
588.0
724.0
461.0
380.0
642.0
698.0
429.0
409.0
705.0
709.0
410.0
470.0
741.0
643.0
394.0
524.0
778.0
601.0
373.0
557.0
759.0
508.0
335.0
571.0
723.0
440.0
317.0
592.0
688.0
395.0
340.0
626.0
644.0
365.0
384.0
665.0
613.0
344.0
417.0
682.0
560.0
325.0
473.0
711.0
513.0
314.0
520.0
708.0
469.0
330.0
569.0
703.0
438.0
341.0
610.0
678.0
391.0
368.0
658.0
652.0
366.0
388.0
678.0
615.0
347.0
444.0
699.0
546.0
323.0
499.0
716.0
505.0
321.0
546.0
719.0
458.0
325.0
588.0
708.0
426.0
358.0
650.0
692.0
400.0
379.0
665.0
632.0
349.0
417.0
691.0
570.0
327.0
461.0
712.0
536.0
313.0
498.0
718.0
489.0
322.0
543.0
703.0
452.0
375.0
717.0
922.0
712.0
596.0
685.0
528.0
250.0
372.0
729.0
647.0
320.0
403.0
708.0
588.0
329.0
472.0
718.0
525.0
321.0
535.0
749.0
474.0
308.0
572.0
725.0
454.0
350.0
630.0
698.0
402.0
376.0
674.0
673.0
388.0
435.0
729.0
631.0
372.0
498.0
763.0
617.0
366.0
534.0
785.0
584.0
371.0
594.0
787.0
525.0
364.0
616.0
719.0
422.0
348.0
629.0
665.0
373.0
360.0
654.0
620.0
326.0
391.0
674.0
577.0
331.0
447.0
681.0
508.0
310.0
511.0
706.0
463.0
316.0
550.0
697.0
428.0
328.0
604.0
687.0
381.0
336.0
636.0
655.0
362.0
374.0
668.0
613.0
336.0
418.0
683.0
562.0
342.0
472.0
696.0
502.0
317.0
524.0
709.0
457.0
305.0
557.0
698.0
421.0
336.0
616.0
667.0
379.0
367.0
653.0
647.0
358.0
409.0
714.0
610.0
321.0
427.0
691.0
540.0
311.0
476.0
686.0
492.0
323.0
528.0
690.0
448.0
314.0
573.0
685.0
405.0
340.0
610.0
649.0
411.0
512.0
896.0
934.0
573.0
417.0
548.0
466.0
336.0
513.0
723.0
504.0
307.0
526.0
710.0
464.0
316.0
565.0
708.0
439.0
339.0
598.0
678.0
404.0
372.0
656.0
660.0
374.0
405.0
697.0
624.0
357.0
452.0
730.0
593.0
351.0
506.0
752.0
555.0
365.0
585.0
766.0
513.0
384.0
634.0
758.0
486.0
404.0
677.0
732.0
428.0
396.0
676.0
647.0
366.0
411.0
683.0
584.0
312.0
432.0
699.0
532.0
304.0
471.0
694.0
484.0
314.0
531.0
691.0
435.0
323.0
580.0
677.0
395.0
336.0
620.0
644.0
363.0
378.0
659.0
606.0
331.0
406.0
693.0
570.0
314.0
454.0
702.0
519.0
308.0
500.0
696.0
464.0
318.0
562.0
692.0
410.0
323.0
611.0
679.0
371.0
347.0
648.0
638.0
348.0
378.0
677.0
617.0
343.0
444.0
714.0
564.0
312.0
465.0
708.0
500.0
305.0
507.0
697.0
449.0
314.0
561.0
680.0
404.0
332.0
620.0
660.0
369.0
349.0
640.0
645.0
430.0
587.0
959.0
869.0
449.0
344.0
538.0
477.0
361.0
541.0
707.0
458.0
304.0
544.0
701.0
442.0
329.0
592.0
682.0
395.0
348.0
642.0
668.0
370.0
379.0
675.0
624.0
348.0
420.0
697.0
582.0
350.0
490.0
728.0
547.0
344.0
551.0
745.0
504.0
358.0
611.0
759.0
476.0
377.0
667.0
738.0
438.0
406.0
700.0
697.0
390.0
407.0
694.0
607.0
330.0
425.0
687.0
543.0
304.0
455.0
702.0
502.0
306.0
501.0
678.0
441.0
330.0
567.0
660.0
398.0
333.0
605.0
647.0
358.0
355.0
653.0
614.0
332.0
395.0
665.0
568.0
318.0
444.0
694.0
520.0
299.0
487.0
697.0
469.0
308.0
542.0
691.0
427.0
314.0
572.0
668.0
388.0
347.0
622.0
640.0
354.0
386.0
664.0
599.0
332.0
436.0
710.0
571.0
318.0
457.0
702.0
510.0
294.0
491.0
698.0
457.0
300.0
541.0
686.0
416.0
312.0
588.0
660.0
368.0
349.0
631.0
619.0
384.0
539.0
933.0
888.0
511.0
403.0
546.0
442.0
335.0
522.0
699.0
463.0
304.0
533.0
701.0
441.0
312.0
568.0
683.0
399.0
336.0
624.0
657.0
370.0
375.0
665.0
626.0
345.0
419.0
710.0
586.0
328.0
468.0
731.0
558.0
342.0
523.0
735.0
512.0
358.0
605.0
754.0
485.0
378.0
656.0
746.0
453.0
415.0
699.0
698.0
402.0
424.0
701.0
621.0
338.0
427.0
698.0
560.0
319.0
467.0
714.0
514.0
310.0
519.0
717.0
473.0
328.0
583.0
711.0
429.0
351.0
638.0
693.0
399.0
384.0
688.0
672.0
374.0
425.0
731.0
634.0
358.0
485.0
755.0
588.0
360.0
542.0
777.0
553.0
357.0
594.0
777.0
515.0
380.0
653.0
765.0
473.0
411.0
707.0
749.0
450.0
453.0
760.0
733.0
453.0
528.0
801.0
666.0
401.0
554.0
819.0
622.0
387.0
593.0
820.0
585.0
414.0
658.0
822.0
556.0
426.0
704.0
805.0
510.0
459.0
783.0
866.0
672.0
781.0
995.0
895.0
471.0
420.0
743.0
728.0
509.0
623.0
839.0
645.0
453.0
672.0
873.0
619.0
458.0
718.0
863.0
585.0
488.0
771.0
846.0
548.0
514.0
821.0
814.0
516.0
560.0
866.0
780.0
500.0
616.0
898.0
747.0
503.0
677.0
913.0
701.0
508.0
741.0
926.0
661.0
522.0
793.0
912.0
617.0
535.0
826.0
861.0
547.0
527.0
821.0
777.0
476.0
536.0
826.0
714.0
452.0
585.0
833.0
653.0
432.0
627.0
843.0
603.0
427.0
668.0
825.0
554.0
448.0
720.0
799.0
500.0
450.0
749.0
768.0
470.0
470.0
766.0
706.0
424.0
520.0
808.0
670.0
399.0
561.0
819.0
590.0
377.0
613.0
810.0
542.0
363.0
639.0
775.0
479.0
388.0
683.0
734.0
426.0
416.0
717.0
684.0
401.0
450.0
736.0
630.0
346.0
485.0
780.0
592.0
330.0
497.0
720.0
495.0
315.0
542.0
692.0
427.0
321.0
582.0
658.0
371.0
319.0
618.0
635.0
334.0
332.0
617.0
580.0
365.0
542.0
916.0
822.0
427.0
344.0
493.0
388.0
284.0
485.0
633.0
382.0
245.0
483.0
613.0
341.0
242.0
510.0
584.0
299.0
260.0
551.0
548.0
268.0
289.0
570.0
498.0
231.0
323.0
599.0
462.0
223.0
363.0
605.0
413.0
220.0
427.0
607.0
366.0
235.0
480.0
600.0
340.0
257.0
518.0
571.0
296.0
279.0
553.0
517.0
234.0
275.0
547.0
445.0
177.0
272.0
531.0
371.0
145.0
310.0
535.0
326.0
133.0
354.0
527.0
275.0
150.0
408.0
515.0
241.0
171.0
454.0
484.0
208.0
203.0
486.0
444.0
185.0
248.0
520.0
401.0
152.0
281.0
531.0
361.0
152.0
333.0
535.0
309.0
152.0
385.0
528.0
269.0
162.0
432.0
508.0
237.0
196.0
475.0
469.0
203.0
235.0
520.0
438.0
181.0
291.0
570.0
418.0
163.0
303.0
547.0
360.0
157.0
355.0
547.0
309.0
168.0
413.0
526.0
272.0
193.0
471.0
517.0
243.0
221.0
500.0
486.0
276.0
434.0
801.0
743.0
390.0
309.0
426.0
314.0
221.0
426.0
595.0
347.0
189.0
439.0
595.0
323.0
215.0
499.0
573.0
291.0
249.0
542.0
557.0
274.0
291.0
582.0
532.0
265.0
348.0
623.0
483.0
258.0
412.0
656.0
462.0
258.0
467.0
672.0
439.0
289.0
532.0
671.0
406.0
322.0
606.0
675.0
373.0
345.0
645.0
619.0
322.0
359.0
658.0
544.0
269.0
378.0
640.0
481.0
255.0
418.0
638.0
434.0
267.0
483.0
632.0
378.0
268.0
533.0
618.0
352.0
298.0
577.0
610.0
323.0
324.0
612.0
579.0
303.0
372.0
647.0
525.0
278.0
412.0
666.0
495.0
287.0
466.0
668.0
445.0
276.0
515.0
668.0
421.0
306.0
545.0
632.0
364.0
330.0
614.0
614.0
331.0
363.0
655.0
594.0
312.0
410.0
700.0
565.0
303.0
437.0
675.0
491.0
289.0
488.0
681.0
443.0
297.0
544.0
667.0
400.0
327.0
596.0
644.0
354.0
345.0
632.0
610.0
387.0
557.0
947.0
877.0
468.0
366.0
536.0
441.0
324.0
520.0
703.0
458.0
284.0
531.0
696.0
425.0
311.0
580.0
672.0
385.0
335.0
618.0
641.0
363.0
375.0
659.0
605.0
337.0
418.0
690.0
572.0
332.0
476.0
706.0
526.0
335.0
529.0
725.0
499.0
355.0
600.0
731.0
461.0
374.0
650.0
716.0
424.0
398.0
685.0
668.0
372.0
401.0
678.0
590.0
317.0
414.0
668.0
513.0
293.0
451.0
671.0
466.0
288.0
501.0
671.0
422.0
298.0
552.0
661.0
383.0
314.0
592.0
616.0
344.0
351.0
630.0
591.0
322.0
386.0
666.0
554.0
300.0
430.0
675.0
495.0
295.0
481.0
678.0
457.0
304.0
529.0
665.0
412.0
324.0
581.0
643.0
358.0
336.0
625.0
637.0
349.0
370.0
666.0
606.0
327.0
396.0
656.0
536.0
313.0
445.0
660.0
476.0
294.0
494.0
672.0
439.0
311.0
544.0
648.0
395.0
328.0
588.0
639.0
380.0
426.0
820.0
907.0
621.0
505.0
594.0
431.0
248.0
435.0
714.0
537.0
291.0
466.0
685.0
474.0
303.0
529.0
689.0
438.0
324.0
573.0
670.0
394.0
351.0
639.0
648.0
356.0
378.0
674.0
626.0
352.0
422.0
692.0
580.0
344.0
486.0
735.0
556.0
350.0
541.0
741.0
527.0
372.0
604.0
747.0
486.0
393.0
643.0
718.0
436.0
389.0
645.0
650.0
371.0
394.0
671.0
593.0
325.0
413.0
674.0
534.0
319.0
484.0
686.0
478.0
302.0
522.0
702.0
440.0
319.0
566.0
677.0
414.0
344.0
612.0
661.0
373.0
366.0
651.0
629.0
351.0
405.0
679.0
586.0
335.0
457.0
706.0
535.0
319.0
498.0
709.0
495.0
327.0
544.0
703.0
451.0
342.0
592.0
676.0
411.0
362.0
635.0
658.0
384.0
407.0
675.0
609.0
349.0
443.0
725.0
598.0
353.0
470.0
698.0
530.0
335.0
511.0
705.0
481.0
328.0
560.0
689.0
426.0
350.0
621.0
680.0
385.0
362.0
665.0
665.0
364.0
462.0
866.0
893.0
647.0
610.0
651.0
404.0
248.0
518.0
773.0
524.0
313.0
534.0
720.0
476.0
345.0
582.0
693.0
432.0
367.0
644.0
681.0
390.0
389.0
680.0
648.0
378.0
440.0
715.0
610.0
363.0
488.0
735.0
581.0
373.0
554.0
754.0
534.0
375.0
610.0
769.0
509.0
399.0
667.0
759.0
477.0
429.0
713.0
722.0
427.0
434.0
712.0
640.0
353.0
437.0
710.0
574.0
324.0
472.0
714.0
520.0
325.0
522.0
704.0
474.0
330.0
567.0
689.0
428.0
348.0
616.0
668.0
390.0
380.0
659.0
632.0
362.0
413.0
682.0
594.0
343.0
463.0
711.0
553.0
334.0
500.0
713.0
505.0
337.0
551.0
702.0
454.0
348.0
602.0
692.0
409.0
356.0
637.0
667.0
382.0
385.0
664.0
625.0
352.0
417.0
697.0
583.0
337.0
474.0
718.0
536.0
326.0
517.0
718.0
493.0
344.0
577.0
724.0
468.0
362.0
609.0
679.0
407.0
376.0
648.0
634.0
352.0
390.0
688.0
608.0
340.0
437.0
708.0
573.0
339.0
484.0
704.0
508.0
337.0
585.0
848.0
708.0
634.0
833.0
749.0
296.0
220.0
631.0
747.0
410.0
356.0
649.0
655.0
375.0
423.0
692.0
593.0
350.0
477.0
729.0
555.0
340.0
522.0
734.0
509.0
347.0
576.0
734.0
482.0
369.0
622.0
721.0
465.0
402.0
674.0
706.0
419.0
445.0
746.0
687.0
400.0
481.0
775.0
655.0
399.0
532.0
777.0
600.0
394.0
568.0
754.0
513.0
357.0
600.0
704.0
428.0
347.0
617.0
677.0
390.0
368.0
646.0
640.0
361.0
390.0
672.0
612.0
349.0
435.0
696.0
561.0
337.0
485.0
705.0
510.0
323.0
529.0
708.0
464.0
333.0
579.0
691.0
420.0
356.0
629.0
667.0
372.0
382.0
659.0
626.0
359.0
422.0
685.0
565.0
329.0
466.0
712.0
537.0
320.0
517.0
722.0
475.0
322.0
565.0
703.0
434.0
333.0
615.0
688.0
391.0
357.0
652.0
661.0
369.0
393.0
675.0
621.0
347.0
442.0
707.0
570.0
331.0
475.0
720.0
541.0
349.0
531.0
707.0
472.0
331.0
573.0
682.0
416.0
344.0
607.0
667.0
382.0
364.0
643.0
619.0
347.0
411.0
690.0
588.0
328.0
440.0
731.0
650.0
530.0
789.0
988.0
623.0
212.0
372.0
654.0
498.0
365.0
574.0
662.0
404.0
353.0
625.0
650.0
368.0
370.0
656.0
615.0
345.0
416.0
690.0
573.0
324.0
464.0
711.0
538.0
330.0
518.0
718.0
492.0
340.0
568.0
711.0
466.0
374.0
633.0
702.0
436.0
410.0
695.0
699.0
405.0
430.0
720.0
660.0
395.0
481.0
733.0
585.0
340.0
483.0
702.0
501.0
308.0
506.0
680.0
436.0
305.0
547.0
661.0
391.0
318.0
593.0
639.0
367.0
343.0
616.0
594.0
336.0
394.0
665.0
559.0
312.0
434.0
683.0
516.0
306.0
483.0
683.0
472.0
306.0
531.0
688.0
421.0
311.0
573.0
665.0
388.0
341.0
609.0
628.0
346.0
365.0
642.0
587.0
329.0
407.0
673.0
547.0
307.0
452.0
686.0
500.0
303.0
495.0
688.0
458.0
307.0
543.0
679.0
414.0
324.0
587.0
655.0
380.0
349.0
632.0
629.0
355.0
383.0
658.0
580.0
324.0
426.0
672.0
520.0
298.0
467.0
687.0
487.0
304.0
508.0
685.0
446.0
310.0
554.0
668.0
393.0
332.0
657.0
800.0
623.0
665.0
873.0
621.0
181.0
269.0
682.0
632.0
336.0
422.0
671.0
523.0
322.0
491.0
690.0
468.0
310.0
542.0
695.0
429.0
328.0
596.0
681.0
394.0
354.0
642.0
656.0
375.0
393.0
673.0
615.0
355.0
444.0
718.0
593.0
355.0
501.0
746.0
560.0
363.0
569.0
764.0
529.0
370.0
611.0
742.0
485.0
391.0
643.0
689.0
395.0
373.0
648.0
616.0
345.0
387.0
656.0
565.0
309.0
425.0
676.0
516.0
300.0
475.0
687.0
477.0
307.0
517.0
685.0
434.0
314.0
563.0
670.0
397.0
333.0
611.0
641.0
357.0
360.0
642.0
602.0
337.0
401.0
666.0
551.0
326.0
457.0
684.0
510.0
310.0
497.0
688.0
462.0
312.0
533.0
677.0
421.0
333.0
583.0
655.0
393.0
355.0
633.0
605.0
343.0
390.0
669.0
582.0
316.0
414.0
680.0
570.0
326.0
464.0
688.0
499.0
316.0
529.0
717.0
459.0
313.0
566.0
689.0
409.0
323.0
608.0
647.0
371.0
380.0
651.0
585.0
320.0
410.0
702.0
587.0
320.0
435.0
678.0
532.0
357.0
634.0
973.0
813.0
508.0
523.0
567.0
369.0
326.0
599.0
682.0
397.0
350.0
641.0
664.0
359.0
367.0
675.0
623.0
347.0
422.0
694.0
577.0
342.0
478.0
704.0
523.0
330.0
533.0
722.0
479.0
340.0
586.0
720.0
450.0
359.0
641.0
711.0
425.0
403.0
695.0
692.0
408.0
446.0
736.0
663.0
392.0
494.0
756.0
606.0
367.0
516.0
726.0
519.0
329.0
533.0
690.0
443.0
330.0
567.0
670.0
404.0
338.0
600.0
636.0
368.0
370.0
645.0
600.0
335.0
406.0
676.0
566.0
320.0
447.0
686.0
521.0
321.0
503.0
696.0
470.0
321.0
547.0
687.0
428.0
327.0
591.0
666.0
389.0
348.0
624.0
626.0
359.0
388.0
658.0
589.0
331.0
422.0
680.0
541.0
315.0
475.0
700.0
499.0
305.0
506.0
697.0
465.0
324.0
560.0
676.0
414.0
336.0
604.0
663.0
386.0
363.0
639.0
619.0
342.0
395.0
666.0
562.0
308.0
430.0
694.0
537.0
305.0
470.0
687.0
483.0
315.0
530.0
681.0
434.0
321.0
598.0
765.0
600.0
628.0
902.0
772.0
264.0
197.0
596.0
659.0
381.0
404.0
653.0
555.0
332.0
459.0
693.0
512.0
316.0
502.0
693.0
470.0
327.0
563.0
692.0
426.0
334.0
603.0
681.0
403.0
373.0
660.0
649.0
358.0
404.0
694.0
634.0
368.0
459.0
734.0
592.0
356.0
517.0
758.0
564.0
375.0
566.0
748.0
515.0
377.0
615.0
727.0
439.0
346.0
613.0
655.0
377.0
361.0
619.0
593.0
331.0
392.0
661.0
564.0
305.0
419.0
675.0
524.0
305.0
473.0
679.0
475.0
306.0
525.0
684.0
431.0
310.0
583.0
671.0
381.0
329.0
608.0
634.0
356.0
371.0
653.0
604.0
333.0
399.0
661.0
550.0
321.0
464.0
683.0
482.0
299.0
501.0
690.0
461.0
297.0
540.0
680.0
410.0
330.0
599.0
638.0
368.0
354.0
635.0
616.0
347.0
387.0
657.0
580.0
329.0
436.0
682.0
525.0
314.0
484.0
693.0
496.0
319.0
535.0
710.0
449.0
331.0
567.0
668.0
386.0
327.0
609.0
641.0
351.0
356.0
648.0
607.0
333.0
405.0
692.0
566.0
297.0
443.0
733.0
622.0
507.0
786.0
986.0
595.0
192.0
368.0
649.0
501.0
376.0
577.0
636.0
380.0
367.0
645.0
641.0
354.0
377.0
667.0
601.0
345.0
423.0
687.0
561.0
333.0
481.0
705.0
516.0
330.0
538.0
715.0
473.0
344.0
596.0
719.0
437.0
359.0
650.0
705.0
422.0
411.0
701.0
678.0
397.0
466.0
748.0
650.0
388.0
494.0
746.0
580.0
343.0
505.0
712.0
492.0
315.0
526.0
676.0
423.0
322.0
579.0
660.0
380.0
331.0
614.0
629.0
352.0
372.0
652.0
585.0
323.0
409.0
682.0
551.0
300.0
448.0
693.0
506.0
306.0
499.0
691.0
460.0
315.0
551.0
681.0
414.0
330.0
599.0
657.0
372.0
352.0
632.0
618.0
348.0
387.0
658.0
577.0
324.0
430.0
686.0
537.0
316.0
480.0
695.0
490.0
308.0
517.0
690.0
439.0
319.0
570.0
679.0
399.0
333.0
608.0
654.0
377.0
363.0
642.0
612.0
344.0
412.0
691.0
578.0
314.0
444.0
698.0
532.0
310.0
473.0
681.0
476.0
317.0
537.0
679.0
420.0
320.0
588.0
670.0
382.0
330.0
621.0
646.0
406.0
521.0
917.0
915.0
553.0
406.0
529.0
445.0
334.0
519.0
709.0
482.0
302.0
516.0
695.0
453.0
319.0
564.0
681.0
409.0
333.0
608.0
663.0
381.0
364.0
648.0
633.0
352.0
407.0
688.0
596.0
335.0
458.0
716.0
558.0
332.0
512.0
739.0
528.0
360.0
594.0
736.0
476.0
372.0
643.0
738.0
457.0
396.0
680.0
702.0
406.0
411.0
682.0
617.0
343.0
407.0
669.0
560.0
321.0
439.0
668.0
499.0
308.0
482.0
672.0
452.0
312.0
543.0
673.0
417.0
329.0
582.0
646.0
385.0
368.0
627.0
607.0
331.0
387.0
670.0
596.0
320.0
415.0
704.0
543.0
303.0
475.0
706.0
501.0
300.0
514.0
705.0
451.0
310.0
573.0
687.0
399.0
326.0
609.0
650.0
365.0
366.0
653.0
621.0
340.0
383.0
670.0
576.0
330.0
450.0
688.0
516.0
305.0
494.0
717.0
496.0
303.0
527.0
691.0
437.0
332.0
594.0
691.0
411.0
356.0
623.0
635.0
361.0
384.0
654.0
590.0
331.0
420.0
686.0
544.0
304.0
466.0
712.0
508.0
315.0
511.0
691.0
469.0
381.0
731.0
969.0
722.0
496.0
570.0
525.0
296.0
373.0
692.0
657.0
331.0
370.0
677.0
600.0
332.0
435.0
712.0
557.0
316.0
472.0
708.0
518.0
321.0
546.0
711.0
459.0
340.0
608.0
710.0
415.0
347.0
648.0
693.0
410.0
400.0
690.0
665.0
389.0
460.0
742.0
641.0
380.0
501.0
757.0
594.0
382.0
556.0
761.0
534.0
364.0
573.0
714.0
460.0
351.0
589.0
645.0
385.0
346.0
625.0
630.0
342.0
362.0
651.0
592.0
331.0
418.0
677.0
532.0
303.0
469.0
711.0
491.0
280.0
501.0
711.0
470.0
323.0
555.0
672.0
407.0
343.0
614.0
641.0
363.0
363.0
646.0
618.0
342.0
391.0
674.0
588.0
324.0
433.0
684.0
527.0
314.0
489.0
701.0
483.0
302.0
531.0
696.0
434.0
318.0
585.0
677.0
391.0
332.0
621.0
649.0
361.0
365.0
650.0
619.0
344.0
414.0
678.0
573.0
339.0
462.0
694.0
518.0
318.0
506.0
701.0
467.0
305.0
542.0
674.0
415.0
329.0
598.0
656.0
368.0
358.0
645.0
626.0
344.0
386.0
684.0
653.0
476.0
682.0
990.0
780.0
307.0
304.0
587.0
519.0
378.0
546.0
677.0
442.0
338.0
584.0
683.0
408.0
345.0
626.0
659.0
380.0
382.0
669.0
635.0
357.0
414.0
695.0
594.0
343.0
475.0
722.0
555.0
345.0
523.0
737.0
528.0
362.0
589.0
747.0
481.0
373.0
651.0
746.0
460.0
414.0
701.0
713.0
429.0
453.0
731.0
659.0
371.0
451.0
718.0
584.0
327.0
469.0
702.0
510.0
312.0
513.0
699.0
464.0
320.0
560.0
693.0
425.0
331.0
598.0
666.0
392.0
369.0
638.0
620.0
355.0
402.0
681.0
586.0
331.0
448.0
707.0
545.0
312.0
486.0
712.0
502.0
320.0
528.0
698.0
453.0
337.0
585.0
685.0
409.0
358.0
631.0
653.0
377.0
380.0
663.0
627.0
344.0
414.0
695.0
579.0
332.0
464.0
705.0
528.0
323.0
520.0
717.0
481.0
342.0
568.0
705.0
451.0
332.0
586.0
676.0
406.0
354.0
635.0
634.0
359.0
403.0
688.0
596.0
315.0
418.0
707.0
571.0
319.0
462.0
712.0
556.0
448.0
767.0
989.0
721.0
373.0
450.0
584.0
415.0
377.0
616.0
654.0
375.0
373.0
653.0
629.0
358.0
413.0
690.0
594.0
334.0
457.0
724.0
549.0
325.0
500.0
730.0
523.0
331.0
545.0
719.0
463.0
358.0
615.0
699.0
426.0
391.0
691.0
687.0
385.0
425.0
722.0
656.0
383.0
474.0
758.0
631.0
360.0
510.0
765.0
566.0
330.0
532.0
741.0
481.0
293.0
557.0
679.0
412.0
348.0
591.0
632.0
365.0
338.0
642.0
646.0
335.0
357.0
667.0
591.0
312.0
420.0
697.0
538.0
305.0
438.0
706.0
512.0
292.0
492.0
697.0
451.0
304.0
554.0
678.0
400.0
343.0
628.0
654.0
322.0
338.0
659.0
620.0
352.0
398.0
661.0
573.0
314.0
440.0
707.0
507.0
282.0
489.0
695.0
466.0
311.0
558.0
713.0
425.0
307.0
584.0
687.0
412.0
335.0
614.0
633.0
354.0
364.0
646.0
577.0
309.0
415.0
677.0
529.0
284.0
458.0
686.0
480.0
306.0
492.0
667.0
453.0
380.0
724.0
920.0
684.0
524.0
603.0
503.0
240.0
337.0
687.0
645.0
326.0
357.0
670.0
575.0
315.0
412.0
677.0
553.0
312.0
443.0
671.0
496.0
344.0
528.0
673.0
430.0
329.0
590.0
682.0
398.0
339.0
637.0
666.0
370.0
379.0
695.0
635.0
339.0
427.0
733.0
607.0
348.0
492.0
749.0
562.0
355.0
573.0
754.0
483.0
341.0
576.0
705.0
411.0
315.0
579.0
650.0
399.0
307.0
571.0
602.0
344.0
375.0
633.0
558.0
299.0
408.0
673.0
518.0
287.0
459.0
675.0
467.0
297.0
499.0
677.0
431.0
305.0
560.0
640.0
371.0
326.0
614.0
650.0
341.0
326.0
644.0
636.0
312.0
353.0
658.0
567.0
322.0
415.0
669.0
503.0
276.0
459.0
707.0
484.0
276.0
501.0
699.0
445.0
287.0
544.0
682.0
399.0
329.0
621.0
643.0
350.0
358.0
636.0
591.0
316.0
378.0
640.0
532.0
302.0
450.0
681.0
478.0
287.0
503.0
686.0
427.0
280.0
530.0
670.0
430.0
395.0
770.0
933.0
666.0
489.0
549.0
463.0
261.0
404.0
711.0
584.0
274.0
385.0
687.0
542.0
299.0
461.0
689.0
490.0
306.0
512.0
682.0
452.0
321.0
555.0
682.0
400.0
333.0
620.0
659.0
374.0
369.0
663.0
633.0
359.0
427.0
703.0
586.0
348.0
496.0
759.0
563.0
324.0
541.0
774.0
539.0
358.0
593.0
749.0
466.0
351.0
614.0
675.0
389.0
349.0
627.0
633.0
329.0
345.0
647.0
600.0
316.0
389.0
652.0
529.0
302.0
463.0
704.0
471.0
263.0
499.0
721.0
464.0
283.0
518.0
671.0
422.0
339.0
576.0
628.0
362.0
368.0
634.0
614.0
339.0
375.0
648.0
572.0
328.0
440.0
677.0
510.0
310.0
486.0
692.0
459.0
309.0
546.0
689.0
411.0
312.0
589.0
686.0
383.0
314.0
609.0
657.0
374.0
378.0
662.0
624.0
345.0
413.0
684.0
555.0
312.0
446.0
691.0
496.0
288.0
499.0
694.0
440.0
294.0
566.0
695.0
385.0
288.0
599.0
686.0
390.0
318.0
613.0
670.0
456.0
576.0
946.0
875.0
429.0
296.0
523.0
507.0
376.0
541.0
687.0
440.0
293.0
543.0
720.0
453.0
313.0
566.0
682.0
413.0
345.0
644.0
661.0
355.0
380.0
684.0
618.0
340.0
413.0
694.0
617.0
349.0
445.0
719.0
580.0
359.0
507.0
741.0
534.0
358.0
593.0
756.0
507.0
385.0
625.0
733.0
476.0
439.0
692.0
682.0
383.0
413.0
691.0
623.0
332.0
422.0
688.0
550.0
310.0
466.0
700.0
502.0
293.0
500.0
706.0
462.0
322.0
563.0
674.0
403.0
327.0
626.0
694.0
361.0
328.0
647.0
661.0
363.0
380.0
666.0
595.0
334.0
423.0
695.0
556.0
315.0
469.0
704.0
502.0
316.0
526.0
701.0
447.0
320.0
565.0
687.0
422.0
343.0
620.0
646.0
356.0
366.0
661.0
621.0
335.0
399.0
699.0
576.0
303.0
444.0
711.0
537.0
315.0
501.0
721.0
482.0
332.0
587.0
726.0
435.0
316.0
588.0
688.0
390.0
316.0
620.0
646.0
356.0
373.0
655.0
605.0
337.0
421.0
691.0
557.0
308.0
449.0
707.0
553.0
424.0
736.0
989.0
750.0
387.0
433.0
555.0
398.0
399.0
656.0
654.0
354.0
357.0
663.0
639.0
343.0
389.0
685.0
604.0
329.0
433.0
707.0
559.0
326.0
495.0
716.0
505.0
329.0
552.0
712.0
457.0
348.0
610.0
712.0
426.0
373.0
665.0
706.0
421.0
415.0
700.0
673.0
409.0
481.0
742.0
621.0
383.0
530.0
760.0
577.0
350.0
518.0
723.0
485.0
322.0
551.0
691.0
424.0
314.0
577.0
662.0
401.0
345.0
603.0
628.0
346.0
377.0
665.0
589.0
322.0
426.0
693.0
542.0
308.0
480.0
710.0
482.0
296.0
526.0
718.0
452.0
288.0
550.0
688.0
439.0
337.0
581.0
641.0
393.0
374.0
629.0
608.0
352.0
400.0
666.0
558.0
327.0
443.0
684.0
520.0
315.0
500.0
701.0
465.0
307.0
546.0
701.0
420.0
318.0
595.0
678.0
385.0
345.0
648.0
658.0
353.0
382.0
694.0
634.0
332.0
390.0
676.0
566.0
314.0
447.0
700.0
520.0
297.0
481.0
698.0
471.0
311.0
549.0
689.0
414.0
323.0
589.0
677.0
464.0
534.0
908.0
927.0
491.0
305.0
512.0
525.0
358.0
468.0
685.0
525.0
312.0
478.0
711.0
497.0
306.0
527.0
707.0
453.0
320.0
571.0
682.0
426.0
347.0
609.0
657.0
385.0
380.0
667.0
637.0
357.0
424.0
706.0
608.0
357.0
475.0
730.0
569.0
353.0
540.0
754.0
527.0
362.0
598.0
754.0
499.0
381.0
634.0
721.0
439.0
381.0
655.0
655.0
356.0
363.0
645.0
604.0
330.0
400.0
671.0
549.0
304.0
442.0
688.0
500.0
296.0
485.0
698.0
463.0
303.0
530.0
670.0
414.0
331.0
589.0
650.0
371.0
351.0
636.0
621.0
338.0
383.0
663.0
576.0
320.0
429.0
692.0
537.0
300.0
476.0
703.0
481.0
301.0
516.0
684.0
434.0
322.0
575.0
673.0
392.0
338.0
619.0
656.0
368.0
373.0
654.0
615.0
346.0
412.0
702.0
597.0
336.0
454.0
694.0
530.0
316.0
488.0
689.0
459.0
325.0
545.0
674.0
419.0
342.0
601.0
661.0
392.0
367.0
615.0
621.0
386.0
456.0
818.0
866.0
636.0
600.0
661.0
414.0
230.0
469.0
749.0
535.0
294.0
488.0
706.0
474.0
321.0
570.0
696.0
421.0
351.0
610.0
646.0
373.0
389.0
695.0
630.0
332.0
399.0
703.0
609.0
336.0
459.0
735.0
563.0
326.0
518.0
758.0
527.0
342.0
587.0
750.0
487.0
377.0
638.0
750.0
463.0
388.0
677.0
718.0
422.0
399.0
680.0
637.0
363.0
438.0
679.0
540.0
302.0
460.0
709.0
514.0
290.0
482.0
692.0
463.0
312.0
544.0
678.0
408.0
317.0
588.0
663.0
369.0
341.0
624.0
622.0
340.0
374.0
673.0
595.0
318.0
417.0
691.0
547.0
310.0
460.0
694.0
492.0
306.0
514.0
693.0
447.0
307.0
555.0
680.0
407.0
329.0
603.0
650.0
364.0
352.0
645.0
620.0
329.0
387.0
675.0
570.0
315.0
438.0
694.0
530.0
308.0
485.0
710.0
494.0
321.0
555.0
713.0
433.0
308.0
574.0
669.0
380.0
323.0
606.0
632.0
349.0
359.0
642.0
588.0
318.0
405.0
677.0
553.0
302.0
438.0
702.0
575.0
469.0
759.0
987.0
655.0
253.0
368.0
590.0
456.0
378.0
594.0
633.0
365.0
358.0
636.0
614.0
334.0
383.0
672.0
585.0
319.0
425.0
693.0
546.0
315.0
472.0
705.0
500.0
314.0
527.0
711.0
466.0
336.0
591.0
703.0
427.0
368.0
648.0
686.0
406.0
411.0
700.0
663.0
390.0
461.0
739.0
630.0
374.0
496.0
743.0
565.0
334.0
506.0
712.0
475.0
302.0
528.0
675.0
412.0
312.0
573.0
651.0
373.0
335.0
618.0
617.0
338.0
363.0
648.0
587.0
327.0
409.0
678.0
538.0
299.0
455.0
695.0
499.0
300.0
505.0
692.0
444.0
305.0
556.0
682.0
407.0
321.0
593.0
656.0
376.0
354.0
634.0
615.0
336.0
387.0
671.0
578.0
317.0
423.0
685.0
536.0
307.0
472.0
691.0
485.0
308.0
515.0
685.0
441.0
333.0
588.0
675.0
391.0
351.0
645.0
662.0
387.0
382.0
643.0
595.0
327.0
408.0
679.0
554.0
302.0
442.0
697.0
508.0
293.0
485.0
707.0
469.0
297.0
532.0
682.0
422.0
324.0
643.0
827.0
637.0
637.0
844.0
635.0
200.0
249.0
675.0
665.0
354.0
397.0
665.0
548.0
321.0
465.0
691.0
496.0
318.0
522.0
703.0
457.0
317.0
576.0
703.0
421.0
339.0
616.0
677.0
385.0
370.0
674.0
653.0
354.0
410.0
712.0
623.0
365.0
493.0
751.0
577.0
350.0
550.0
781.0
544.0
356.0
595.0
754.0
494.0
370.0
622.0
713.0
416.0
352.0
629.0
644.0
352.0
354.0
649.0
603.0
308.0
390.0
674.0
552.0
302.0
444.0
691.0
500.0
294.0
489.0
685.0
466.0
312.0
537.0
674.0
409.0
321.0
589.0
662.0
376.0
345.0
619.0
625.0
343.0
380.0
666.0
589.0
317.0
416.0
683.0
542.0
301.0
460.0
695.0
498.0
304.0
517.0
685.0
435.0
311.0
568.0
682.0
399.0
328.0
600.0
644.0
367.0
357.0
648.0
608.0
327.0
398.0
691.0
577.0
317.0
454.0
721.0
543.0
305.0
487.0
698.0
465.0
287.0
524.0
690.0
419.0
299.0
567.0
663.0
383.0
331.0
621.0
634.0
341.0
361.0
653.0
587.0
343.0
518.0
908.0
855.0
559.0
511.0
568.0
373.0
279.0
552.0
724.0
448.0
289.0
541.0
688.0
417.0
323.0
592.0
651.0
374.0
356.0
642.0
632.0
347.0
384.0
677.0
598.0
323.0
432.0
710.0
557.0
317.0
486.0
712.0
514.0
335.0
560.0
734.0
479.0
353.0
617.0
738.0
451.0
377.0
673.0
723.0
434.0
412.0
702.0
673.0
383.0
435.0
709.0
588.0
325.0
444.0
688.0
505.0
300.0
485.0
683.0
464.0
303.0
526.0
669.0
411.0
311.0
580.0
658.0
370.0
324.0
621.0
629.0
338.0
362.0
655.0
591.0
330.0
407.0
668.0
553.0
310.0
447.0
677.0
487.0
303.0
507.0
691.0
452.0
305.0
542.0
671.0
410.0
346.0
592.0
635.0
359.0
357.0
642.0
612.0
329.0
382.0
670.0
580.0
321.0
431.0
694.0
523.0
293.0
485.0
714.0
479.0
302.0
535.0
712.0
448.0
314.0
597.0
705.0
407.0
332.0
612.0
641.0
358.0
362.0
641.0
592.0
330.0
400.0
669.0
549.0
309.0
449.0
702.0
499.0
289.0
485.0
705.0
494.0
373.0
715.0
968.0
719.0
468.0
524.0
520.0
324.0
383.0
683.0
647.0
332.0
366.0
670.0
605.0
331.0
433.0
690.0
542.0
316.0
484.0
707.0
504.0
316.0
532.0
720.0
471.0
335.0
585.0
702.0
423.0
350.0
640.0
692.0
400.0
396.0
694.0
668.0
380.0
434.0
752.0
658.0
370.0
494.0
774.0
615.0
355.0
539.0
773.0
548.0
355.0
566.0
730.0
461.0
325.0
589.0
683.0
398.0
351.0
617.0
623.0
345.0
376.0
673.0
604.0
317.0
409.0
694.0
561.0
307.0
451.0
702.0
517.0
310.0
502.0
706.0
467.0
311.0
567.0
699.0
414.0
314.0
605.0
682.0
387.0
348.0
638.0
647.0
352.0
378.0
671.0
591.0
328.0
439.0
690.0
535.0
315.0
486.0
713.0
494.0
301.0
520.0
707.0
460.0
322.0
577.0
685.0
409.0
359.0
652.0
676.0
365.0
362.0
661.0
623.0
320.0
384.0
676.0
577.0
321.0
443.0
696.0
527.0
315.0
494.0
699.0
473.0
305.0
540.0
695.0
479.0
469.0
854.0
973.0
607.0
345.0
506.0
542.0
353.0
407.0
672.0
587.0
322.0
426.0
693.0
553.0
306.0
467.0
706.0
504.0
311.0
523.0
712.0
458.0
319.0
583.0
703.0
418.0
336.0
627.0
679.0
384.0
372.0
684.0
664.0
363.0
417.0
718.0
626.0
354.0
481.0
754.0
587.0
358.0
545.0
776.0
548.0
347.0
573.0
763.0
493.0
347.0
602.0
697.0
400.0
342.0
623.0
647.0
356.0
353.0
648.0
609.0
327.0
396.0
679.0
555.0
306.0
451.0
699.0
507.0
301.0
500.0
693.0
462.0
313.0
551.0
685.0
420.0
331.0
604.0
659.0
370.0
345.0
644.0
631.0
334.0
373.0
673.0
594.0
322.0
417.0
683.0
540.0
309.0
474.0
705.0
493.0
296.0
505.0
691.0
453.0
324.0
564.0
673.0
402.0
333.0
610.0
655.0
369.0
369.0
646.0
615.0
360.0
425.0
686.0
548.0
303.0
445.0
692.0
506.0
293.0
486.0
685.0
466.0
288.0
525.0
704.0
424.0
295.0
567.0
659.0
377.0
347.0
659.0
752.0
594.0
687.0
919.0
641.0
168.0
236.0
673.0
633.0
339.0
429.0
676.0
498.0
307.0
509.0
699.0
457.0
309.0
553.0
692.0
419.0
316.0
592.0
666.0
386.0
364.0
647.0
627.0
352.0
404.0
694.0
603.0
337.0
436.0
714.0
568.0
335.0
510.0
747.0
532.0
342.0
577.0
772.0
503.0
355.0
623.0
744.0
450.0
378.0
661.0
681.0
376.0
377.0
660.0
597.0
321.0
402.0
680.0
544.0
290.0
444.0
689.0
488.0
288.0
486.0
682.0
446.0
297.0
540.0
672.0
410.0
318.0
587.0
652.0
364.0
329.0
630.0
635.0
345.0
367.0
644.0
583.0
321.0
415.0
682.0
534.0
298.0
461.0
704.0
485.0
279.0
501.0
695.0
447.0
304.0
554.0
677.0
398.0
322.0
601.0
649.0
362.0
352.0
645.0
598.0
320.0
394.0
684.0
576.0
314.0
438.0
699.0
546.0
333.0
500.0
692.0
463.0
304.0
531.0
681.0
418.0
309.0
575.0
659.0
379.0
332.0
617.0
631.0
347.0
371.0
655.0
582.0
315.0
427.0
762.0
735.0
578.0
745.0
867.0
448.0
132.0
412.0
741.0
521.0
317.0
530.0
673.0
414.0
333.0
601.0
661.0
375.0
353.0
641.0
630.0
347.0
394.0
682.0
592.0
327.0
440.0
708.0
554.0
323.0
487.0
717.0
518.0
335.0
551.0
722.0
471.0
356.0
613.0
726.0
449.0
383.0
669.0
709.0
423.0
430.0
717.0
655.0
387.0
461.0
720.0
589.0
327.0
456.0
702.0
525.0
305.0
480.0
678.0
453.0
295.0
543.0
695.0
407.0
296.0
576.0
666.0
385.0
341.0
612.0
614.0
343.0
369.0
662.0
583.0
311.0
419.0
699.0
548.0
301.0
461.0
702.0
507.0
316.0
497.0
675.0
451.0
314.0
561.0
676.0
398.0
322.0
613.0
660.0
358.0
343.0
652.0
628.0
334.0
378.0
667.0
579.0
319.0
431.0
698.0
536.0
302.0
471.0
709.0
491.0
309.0
533.0
695.0
442.0
333.0
607.0
705.0
407.0
333.0
620.0
641.0
354.0
359.0
654.0
602.0
315.0
407.0
674.0
552.0
307.0
446.0
693.0
507.0
304.0
505.0
693.0
468.0
379.0
738.0
962.0
702.0
478.0
559.0
511.0
292.0
380.0
700.0
637.0
316.0
375.0
686.0
601.0
314.0
432.0
713.0
544.0
302.0
474.0
712.0
495.0
325.0
548.0
715.0
441.0
320.0
598.0
710.0
420.0
351.0
637.0
682.0
390.0
407.0
699.0
650.0
371.0
454.0
746.0
624.0
362.0
500.0
761.0
587.0
375.0
564.0
754.0
507.0
349.0
586.0
726.0
439.0
317.0
584.0
665.0
377.0
341.0
628.0
629.0
336.0
360.0
665.0
596.0
314.0
409.0
682.0
538.0
303.0
466.0
704.0
498.0
298.0
506.0
698.0
451.0
303.0
556.0
687.0
407.0
323.0
606.0
662.0
373.0
351.0
646.0
621.0
332.0
384.0
674.0
574.0
309.0
434.0
694.0
530.0
305.0
486.0
702.0
474.0
297.0
531.0
698.0
427.0
310.0
584.0
681.0
386.0
335.0
626.0
647.0
351.0
373.0
671.0
612.0
331.0
423.0
711.0
582.0
318.0
456.0
697.0
503.0
300.0
501.0
683.0
444.0
306.0
552.0
679.0
404.0
317.0
595.0
664.0
372.0
346.0
636.0
622.0
357.0
451.0
848.0
870.0
606.0
573.0
629.0
389.0
235.0
505.0
761.0
496.0
273.0
520.0
715.0
448.0
304.0
571.0
695.0
412.0
330.0
615.0
661.0
374.0
370.0
666.0
633.0
344.0
409.0
703.0
590.0
325.0
465.0
734.0
557.0
329.0
526.0
752.0
516.0
341.0
590.0
753.0
487.0
379.0
661.0
750.0
443.0
393.0
701.0
719.0
408.0
416.0
707.0
621.0
327.0
423.0
716.0
562.0
290.0
447.0
701.0
499.0
294.0
499.0
695.0
449.0
295.0
553.0
691.0
404.0
317.0
596.0
652.0
377.0
369.0
633.0
605.0
345.0
395.0
682.0
586.0
316.0
420.0
694.0
538.0
314.0
489.0
693.0
475.0
320.0
548.0
679.0
413.0
315.0
588.0
695.0
390.0
320.0
621.0
646.0
357.0
362.0
654.0
603.0
333.0
404.0
679.0
563.0
312.0
452.0
714.0
505.0
300.0
511.0
713.0
478.0
334.0
590.0
719.0
402.0
313.0
591.0
660.0
368.0
344.0
639.0
625.0
330.0
368.0
663.0
587.0
323.0
415.0
689.0
545.0
300.0
451.0
703.0
546.0
447.0
760.0
988.0
677.0
300.0
403.0
580.0
413.0
381.0
624.0
640.0
358.0
369.0
665.0
612.0
325.0
407.0
692.0
575.0
309.0
445.0
709.0
527.0
313.0
504.0
715.0
488.0
325.0
572.0
713.0
434.0
341.0
614.0
706.0
422.0
375.0
667.0
684.0
391.0
424.0
720.0
653.0
381.0
478.0
754.0
609.0
360.0
520.0
764.0
553.0
338.0
538.0
715.0
462.0
312.0
556.0
679.0
399.0
313.0
591.0
656.0
356.0
345.0
636.0
613.0
327.0
378.0
664.0
569.0
315.0
434.0
687.0
524.0
300.0
481.0
700.0
477.0
299.0
532.0
696.0
432.0
312.0
576.0
671.0
389.0
335.0
621.0
640.0
344.0
360.0
661.0
607.0
321.0
396.0
683.0
563.0
311.0
451.0
696.0
507.0
301.0
494.0
696.0
459.0
300.0
543.0
691.0
414.0
312.0
591.0
665.0
380.0
354.0
639.0
629.0
361.0
413.0
689.0
582.0
301.0
409.0
689.0
534.0
294.0
451.0
683.0
475.0
295.0
513.0
686.0
432.0
307.0
566.0
672.0
384.0
309.0
605.0
691.0
487.0
594.0
955.0
848.0
337.0
231.0
554.0
574.0
369.0
461.0
670.0
499.0
302.0
502.0
705.0
463.0
296.0
544.0
698.0
428.0
314.0
587.0
672.0
396.0
354.0
636.0
644.0
355.0
393.0
684.0
614.0
339.0
433.0
713.0
577.0
336.0
507.0
749.0
539.0
339.0
569.0
762.0
504.0
360.0
621.0
750.0
463.0
374.0
659.0
712.0
403.0
372.0
662.0
631.0
332.0
387.0
675.0
562.0
296.0
418.0
684.0
519.0
295.0
471.0
689.0
462.0
294.0
522.0
684.0
418.0
310.0
576.0
663.0
377.0
328.0
609.0
628.0
350.0
368.0
650.0
599.0
328.0
397.0
669.0
551.0
305.0
453.0
697.0
506.0
291.0
490.0
694.0
456.0
307.0
550.0
683.0
409.0
321.0
586.0
649.0
365.0
345.0
635.0
622.0
333.0
379.0
678.0
592.0
324.0
444.0
712.0
551.0
299.0
466.0
700.0
483.0
277.0
509.0
693.0
423.0
303.0
589.0
668.0
363.0
326.0
618.0
641.0
341.0
346.0
656.0
628.0
364.0
534.0
957.0
882.0
484.0
401.0
571.0
449.0
288.0
488.0
683.0
475.0
322.0
545.0
672.0
395.0
321.0
624.0
674.0
343.0
323.0
652.0
667.0
359.0
352.0
673.0
608.0
321.0
427.0
740.0
566.0
295.0
473.0
735.0
529.0
326.0
554.0
742.0
484.0
343.0
613.0
751.0
455.0
382.0
658.0
697.0
416.0
435.0
716.0
666.0
377.0
426.0
696.0
594.0
355.0
444.0
669.0
509.0
325.0
500.0
689.0
456.0
301.0
544.0
684.0
419.0
325.0
582.0
655.0
385.0
340.0
617.0
641.0
363.0
367.0
643.0
607.0
342.0
432.0
686.0
531.0
296.0
486.0
701.0
493.0
295.0
517.0
718.0
458.0
307.0
544.0
681.0
438.0
320.0
579.0
