inf
324.0
324.0
324.0
325.0
326.0
326.0
326.0
327.0
327.0
328.0
330.0
332.0
334.0
330.0
330.0
330.0
326.0
324.0
322.0
324.0
325.0
329.0
325.0
322.0
324.0
322.0
320.0
325.0
317.0
329.0
337.0
337.0
326.0
321.0
327.0
324.0
320.0
313.0
317.0
318.0
318.0
317.0
320.0
324.0
321.0
320.0
322.0
332.0
314.0
307.0
317.0
353.0
428.0
545.0
628.0
605.0
371.0
143.0
137.0
283.0
370.0
337.0
289.0
291.0
319.0
327.0
313.0
311.0
313.0
315.0
333.0
325.0
321.0
325.0
325.0
325.0
336.0
326.0
327.0
331.0
341.0
348.0
341.0
340.0
341.0
345.0
348.0
349.0
355.0
357.0
359.0
358.0
356.0
358.0
361.0
362.0
361.0
357.0
355.0
350.0
345.0
336.0
330.0
326.0
332.0
319.0
315.0
310.0
308.0
309.0
317.0
311.0
311.0
312.0
310.0
310.0
310.0
314.0
321.0
318.0
316.0
319.0
319.0
319.0
316.0
318.0
318.0
327.0
325.0
321.0
321.0
324.0
323.0
321.0
325.0
322.0
322.0
323.0
328.0
323.0
323.0
332.0
324.0
325.0
333.0
323.0
317.0
320.0
328.0
326.0
322.0
323.0
324.0
323.0
322.0
320.0
320.0
318.0
323.0
330.0
326.0
320.0
316.0
321.0
319.0
320.0
330.0
330.0
329.0
321.0
318.0
322.0
319.0
310.0
317.0
319.0
312.0
317.0
322.0
319.0
319.0
321.0
327.0
320.0
319.0
316.0
313.0
339.0
390.0
508.0
606.0
641.0
484.0
220.0
114.0
221.0
350.0
360.0
316.0
295.0
312.0
329.0
320.0
309.0
320.0
321.0
318.0
321.0
335.0
326.0
325.0
325.0
329.0
337.0
337.0
330.0
332.0
344.0
348.0
342.0
342.0
346.0
353.0
359.0
353.0
357.0
357.0
358.0
364.0
360.0
360.0
370.0
360.0
362.0
357.0
352.0
343.0
339.0
339.0
332.0
325.0
317.0
314.0
313.0
311.0
309.0
310.0
321.0
311.0
309.0
305.0
305.0
307.0
310.0
312.0
323.0
317.0
315.0
313.0
319.0
326.0
321.0
319.0
319.0
320.0
319.0
316.0
326.0
327.0
320.0
313.0
313.0
319.0
325.0
324.0
318.0
315.0
319.0
324.0
316.0
313.0
316.0
322.0
326.0
322.0
318.0
318.0
324.0
317.0
315.0
321.0
334.0
324.0
319.0
318.0
326.0
322.0
319.0
316.0
326.0
328.0
343.0
331.0
320.0
310.0
318.0
324.0
319.0
310.0
307.0
311.0
316.0
318.0
322.0
326.0
317.0
315.0
319.0
326.0
317.0
305.0
316.0
362.0
454.0
576.0
633.0
558.0
297.0
133.0
178.0
300.0
350.0
326.0
299.0
304.0
317.0
319.0
324.0
316.0
319.0
324.0
327.0
327.0
325.0
331.0
326.0
327.0
332.0
333.0
334.0
335.0
340.0
346.0
343.0
342.0
344.0
346.0
351.0
360.0
351.0
353.0
358.0
366.0
360.0
352.0
358.0
370.0
367.0
358.0
350.0
352.0
349.0
340.0
333.0
330.0
329.0
322.0
324.0
316.0
314.0
316.0
313.0
313.0
326.0
319.0
320.0
316.0
314.0
329.0
322.0
320.0
322.0
328.0
324.0
325.0
327.0
325.0
328.0
330.0
327.0
329.0
323.0
323.0
329.0
325.0
325.0
332.0
325.0
325.0
332.0
330.0
323.0
324.0
331.0
331.0
325.0
323.0
322.0
323.0
334.0
326.0
321.0
329.0
324.0
325.0
329.0
324.0
326.0
332.0
326.0
323.0
330.0
326.0
327.0
329.0
323.0
321.0
333.0
333.0
340.0
335.0
328.0
323.0
324.0
323.0
327.0
326.0
316.0
311.0
317.0
320.0
325.0
323.0
321.0
323.0
331.0
327.0
327.0
322.0
318.0
338.0
417.0
541.0
633.0
631.0
443.0
176.0
124.0
262.0
372.0
361.0
299.0
288.0
320.0
327.0
324.0
314.0
324.0
329.0
328.0
324.0
323.0
327.0
332.0
343.0
332.0
333.0
340.0
336.0
340.0
344.0
340.0
342.0
352.0
347.0
362.0
352.0
356.0
359.0
360.0
368.0
371.0
362.0
360.0
366.0
362.0
366.0
357.0
360.0
351.0
341.0
329.0
335.0
324.0
319.0
316.0
312.0
311.0
312.0
318.0
317.0
309.0
306.0
309.0
320.0
317.0
312.0
314.0
318.0
319.0
317.0
323.0
323.0
322.0
324.0
321.0
323.0
325.0
328.0
324.0
324.0
332.0
326.0
327.0
327.0
324.0
327.0
330.0
327.0
332.0
325.0
324.0
328.0
328.0
327.0
325.0
326.0
328.0
328.0
327.0
334.0
325.0
322.0
324.0
325.0
327.0
334.0
330.0
329.0
325.0
338.0
331.0
331.0
325.0
324.0
325.0
327.0
330.0
337.0
341.0
334.0
328.0
319.0
322.0
327.0
325.0
324.0
318.0
317.0
318.0
319.0
324.0
327.0
325.0
324.0
323.0
322.0
324.0
331.0
328.0
365.0
460.0
587.0
649.0
546.0
292.0
128.0
183.0
327.0
380.0
327.0
285.0
300.0
327.0
326.0
323.0
320.0
325.0
326.0
325.0
322.0
325.0
326.0
330.0
334.0
340.0
332.0
339.0
340.0
337.0
342.0
347.0
347.0
346.0
349.0
360.0
354.0
359.0
363.0
362.0
364.0
371.0
364.0
365.0
368.0
365.0
377.0
364.0
352.0
344.0
341.0
339.0
331.0
318.0
325.0
321.0
317.0
311.0
309.0
311.0
317.0
322.0
318.0
317.0
318.0
316.0
318.0
316.0
325.0
329.0
326.0
325.0
327.0
322.0
327.0
333.0
328.0
322.0
332.0
332.0
335.0
328.0
323.0
322.0
323.0
329.0
331.0
326.0
329.0
327.0
326.0
327.0
324.0
332.0
328.0
324.0
327.0
325.0
324.0
324.0
324.0
333.0
335.0
329.0
327.0
326.0
322.0
326.0
332.0
331.0
327.0
327.0
331.0
329.0
330.0
323.0
323.0
333.0
340.0
342.0
337.0
328.0
325.0
325.0
322.0
320.0
313.0
316.0
319.0
319.0
328.0
324.0
322.0
321.0
327.0
330.0
328.0
313.0
316.0
361.0
431.0
539.0
630.0
592.0
375.0
157.0
144.0
284.0
376.0
347.0
293.0
290.0
319.0
330.0
326.0
316.0
316.0
321.0
333.0
330.0
334.0
325.0
327.0
331.0
331.0
331.0
339.0
337.0
346.0
339.0
339.0
346.0
351.0
354.0
357.0
352.0
355.0
365.0
367.0
374.0
363.0
363.0
366.0
377.0
366.0
362.0
359.0
351.0
355.0
354.0
338.0
327.0
322.0
326.0
319.0
317.0
314.0
315.0
315.0
316.0
316.0
316.0
315.0
316.0
318.0
321.0
316.0
318.0
322.0
323.0
324.0
327.0
336.0
321.0
322.0
325.0
325.0
326.0
335.0
326.0
322.0
326.0
323.0
326.0
338.0
326.0
322.0
329.0
330.0
332.0
319.0
324.0
330.0
323.0
317.0
323.0
330.0
326.0
323.0
324.0
323.0
325.0
331.0
322.0
323.0
328.0
328.0
324.0
333.0
324.0
325.0
334.0
326.0
322.0
322.0
326.0
332.0
339.0
336.0
333.0
323.0
325.0
328.0
325.0
323.0
318.0
317.0
318.0
322.0
325.0
326.0
328.0
324.0
318.0
327.0
327.0
320.0
326.0
371.0
475.0
592.0
628.0
534.0
273.0
133.0
197.0
334.0
368.0
326.0
291.0
302.0
327.0
331.0
329.0
320.0
318.0
323.0
325.0
327.0
332.0
330.0
338.0
334.0
337.0
341.0
344.0
339.0
335.0
346.0
356.0
345.0
348.0
357.0
353.0
354.0
364.0
361.0
362.0
360.0
366.0
369.0
371.0
366.0
369.0
372.0
364.0
359.0
351.0
342.0
334.0
338.0
329.0
335.0
319.0
315.0
314.0
314.0
319.0
323.0
319.0
315.0
318.0
322.0
320.0
317.0
323.0
327.0
326.0
322.0
328.0
328.0
324.0
328.0
329.0
336.0
330.0
325.0
323.0
325.0
330.0
328.0
327.0
326.0
334.0
327.0
326.0
329.0
327.0
334.0
325.0
326.0
330.0
331.0
330.0
327.0
326.0
321.0
325.0
328.0
321.0
321.0
334.0
326.0
321.0
327.0
326.0
322.0
329.0
324.0
326.0
329.0
328.0
336.0
322.0
321.0
322.0
326.0
335.0
339.0
335.0
325.0
318.0
316.0
323.0
317.0
306.0
314.0
321.0
317.0
316.0
316.0
320.0
320.0
324.0
323.0
317.0
308.0
311.0
341.0
392.0
500.0
605.0
614.0
464.0
232.0
134.0
219.0
339.0
357.0
314.0
291.0
308.0
319.0
318.0
313.0
315.0
317.0
325.0
323.0
323.0
325.0
324.0
327.0
333.0
323.0
326.0
332.0
340.0
342.0
338.0
338.0
337.0
354.0
356.0
351.0
346.0
350.0
357.0
362.0
362.0
362.0
356.0
364.0
363.0
359.0
356.0
354.0
354.0
352.0
335.0
325.0
322.0
328.0
317.0
310.0
305.0
298.0
314.0
318.0
304.0
313.0
323.0
308.0
299.0
305.0
306.0
316.0
324.0
326.0
318.0
310.0
320.0
317.0
325.0
322.0
315.0
317.0
316.0
321.0
320.0
317.0
326.0
316.0
318.0
313.0
315.0
323.0
323.0
314.0
312.0
321.0
332.0
311.0
311.0
316.0
314.0
308.0
320.0
317.0
310.0
312.0
315.0
312.0
327.0
332.0
323.0
314.0
319.0
319.0
309.0
316.0
326.0
321.0
315.0
314.0
310.0
312.0
325.0
326.0
325.0
327.0
325.0
335.0
320.0
304.0
318.0
326.0
302.0
298.0
299.0
307.0
317.0
315.0
317.0
312.0
313.0
315.0
310.0
304.0
304.0
322.0
364.0
459.0
565.0
617.0
518.0
278.0
122.0
164.0
302.0
359.0
318.0
281.0
292.0
312.0
307.0
306.0
311.0
311.0
321.0
317.0
316.0
317.0
315.0
320.0
328.0
326.0
319.0
325.0
329.0
337.0
331.0
338.0
336.0
333.0
339.0
349.0
346.0
349.0
347.0
358.0
361.0
361.0
355.0
362.0
368.0
355.0
358.0
363.0
354.0
345.0
337.0
334.0
330.0
316.0
319.0
315.0
309.0
304.0
303.0
313.0
313.0
313.0
309.0
307.0
311.0
314.0
315.0
312.0
312.0
314.0
318.0
318.0
313.0
320.0
321.0
320.0
310.0
312.0
321.0
322.0
318.0
322.0
327.0
318.0
321.0
326.0
329.0
320.0
321.0
327.0
324.0
317.0
320.0
329.0
324.0
317.0
317.0
329.0
327.0
326.0
319.0
321.0
326.0
326.0
319.0
320.0
328.0
324.0
324.0
332.0
317.0
319.0
329.0
339.0
338.0
331.0
327.0
322.0
327.0
329.0
319.0
310.0
316.0
322.0
326.0
324.0
322.0
317.0
324.0
339.0
330.0
324.0
309.0
319.0
357.0
432.0
522.0
629.0
618.0
413.0
187.0
148.0
263.0
349.0
346.0
317.0
302.0
316.0
329.0
334.0
320.0
322.0
330.0
330.0
336.0
328.0
332.0
331.0
337.0
339.0
334.0
328.0
335.0
346.0
345.0
340.0
346.0
352.0
347.0
349.0
355.0
357.0
356.0
362.0
363.0
360.0
366.0
370.0
368.0
363.0
366.0
365.0
359.0
353.0
351.0
340.0
338.0
330.0
325.0
323.0
317.0
319.0
324.0
329.0
318.0
316.0
320.0
320.0
326.0
323.0
322.0
324.0
323.0
324.0
325.0
327.0
323.0
326.0
330.0
328.0
333.0
328.0
335.0
327.0
326.0
330.0
334.0
331.0
331.0
332.0
330.0
328.0
337.0
333.0
329.0
326.0
329.0
326.0
339.0
328.0
334.0
327.0
331.0
336.0
330.0
328.0
330.0
329.0
332.0
339.0
329.0
335.0
325.0
332.0
340.0
331.0
335.0
332.0
336.0
338.0
335.0
332.0
336.0
341.0
339.0
328.0
334.0
337.0
332.0
321.0
322.0
323.0
325.0
334.0
337.0
339.0
328.0
325.0
324.0
322.0
345.0
334.0
318.0
352.0
439.0
556.0
644.0
614.0
419.0
166.0
148.0
294.0
374.0
342.0
315.0
312.0
321.0
326.0
337.0
330.0
328.0
330.0
336.0
338.0
336.0
332.0
333.0
342.0
341.0
338.0
346.0
343.0
342.0
352.0
352.0
351.0
350.0
355.0
354.0
366.0
366.0
361.0
370.0
379.0
375.0
361.0
363.0
374.0
385.0
370.0
363.0
372.0
355.0
341.0
341.0
343.0
326.0
328.0
323.0
318.0
324.0
321.0
322.0
319.0
330.0
319.0
318.0
319.0
336.0
328.0
329.0
324.0
324.0
340.0
332.0
326.0
326.0
333.0
338.0
336.0
334.0
334.0
329.0
328.0
345.0
338.0
336.0
330.0
340.0
332.0
330.0
334.0
342.0
334.0
325.0
339.0
346.0
336.0
326.0
320.0
336.0
344.0
341.0
340.0
321.0
336.0
331.0
335.0
338.0
336.0
329.0
326.0
344.0
328.0
329.0
337.0
332.0
333.0
344.0
348.0
346.0
337.0
347.0
336.0
322.0
330.0
327.0
321.0
326.0
318.0
323.0
336.0
330.0
338.0
337.0
331.0
324.0
324.0
343.0
376.0
419.0
527.0
619.0
618.0
421.0
183.0
148.0
268.0
365.0
358.0
309.0
290.0
323.0
334.0
330.0
322.0
325.0
339.0
338.0
334.0
331.0
335.0
335.0
344.0
338.0
330.0
339.0
351.0
356.0
352.0
349.0
342.0
350.0
360.0
349.0
355.0
373.0
379.0
372.0
360.0
348.0
360.0
376.0
385.0
361.0
334.0
347.0
375.0
356.0
343.0
348.0
340.0
331.0
321.0
306.0
320.0
321.0
320.0
326.0
306.0
308.0
322.0
329.0
320.0
312.0
314.0
320.0
326.0
321.0
313.0
320.0
333.0
325.0
329.0
326.0
322.0
333.0
324.0
329.0
323.0
325.0
341.0
327.0
323.0
316.0
319.0
344.0
331.0
329.0
333.0
329.0
318.0
333.0
350.0
334.0
313.0
315.0
321.0
326.0
336.0
337.0
335.0
332.0
340.0
342.0
338.0
328.0
337.0
336.0
354.0
330.0
296.0
312.0
328.0
318.0
306.0
326.0
329.0
321.0
310.0
312.0
335.0
351.0
317.0
299.0
327.0
339.0
350.0
417.0
548.0
627.0
591.0
369.0
154.0
150.0
276.0
370.0
355.0
300.0
282.0
282.0
316.0
344.0
332.0
317.0
329.0
322.0
312.0
326.0
332.0
337.0
321.0
323.0
346.0
347.0
325.0
325.0
356.0
368.0
340.0
327.0
344.0
361.0
360.0
349.0
351.0
367.0
364.0
365.0
353.0
353.0
379.0
351.0
369.0
368.0
364.0
348.0
347.0
338.0
337.0
320.0
317.0
307.0
313.0
326.0
309.0
306.0
316.0
316.0
327.0
311.0
312.0
326.0
325.0
315.0
312.0
317.0
316.0
324.0
329.0
319.0
318.0
331.0
320.0
316.0
327.0
329.0
315.0
320.0
329.0
323.0
328.0
330.0
317.0
302.0
327.0
333.0
326.0
315.0
328.0
330.0
314.0
312.0
316.0
334.0
317.0
324.0
340.0
334.0
323.0
338.0
352.0
357.0
334.0
316.0
309.0
321.0
315.0
306.0
304.0
308.0
317.0
314.0
296.0
317.0
323.0
311.0
308.0
322.0
317.0
307.0
311.0
356.0
437.0
553.0
618.0
544.0
298.0
130.0
172.0
305.0
361.0
325.0
297.0
296.0
307.0
318.0
317.0
322.0
312.0
307.0
315.0
327.0
329.0
327.0
323.0
329.0
328.0
328.0
338.0
329.0
342.0
346.0
345.0
335.0
339.0
361.0
362.0
348.0
346.0
364.0
371.0
362.0
359.0
361.0
363.0
364.0
360.0
363.0
362.0
352.0
347.0
340.0
331.0
330.0
316.0
315.0
320.0
310.0
304.0
292.0
323.0
333.0
310.0
297.0
312.0
328.0
316.0
298.0
308.0
324.0
323.0
309.0
316.0
329.0
323.0
323.0
316.0
318.0
320.0
321.0
322.0
320.0
318.0
313.0
314.0
319.0
321.0
314.0
325.0
330.0
319.0
316.0
317.0
330.0
315.0
320.0
320.0
319.0
316.0
316.0
326.0
321.0
326.0
321.0
353.0
355.0
332.0
302.0
297.0
319.0
323.0
302.0
296.0
308.0
311.0
305.0
320.0
313.0
303.0
311.0
317.0
323.0
304.0
309.0
319.0
363.0
457.0
569.0
626.0
518.0
280.0
125.0
179.0
310.0
351.0
318.0
290.0
303.0
321.0
317.0
310.0
298.0
315.0
334.0
323.0
314.0
314.0
326.0
324.0
320.0
324.0
329.0
330.0
332.0
338.0
338.0
337.0
333.0
342.0
348.0
351.0
353.0
347.0
349.0
356.0
368.0
366.0
354.0
351.0
374.0
373.0
357.0
353.0
348.0
342.0
338.0
328.0
334.0
318.0
311.0
313.0
309.0
307.0
308.0
316.0
311.0
306.0
307.0
311.0
314.0
308.0
304.0
326.0
329.0
323.0
320.0
318.0
327.0
330.0
325.0
320.0
320.0
331.0
321.0
323.0
333.0
321.0
322.0
327.0
323.0
319.0
318.0
319.0
323.0
327.0
328.0
319.0
316.0
324.0
333.0
318.0
320.0
330.0
335.0
330.0
324.0
331.0
337.0
344.0
343.0
334.0
331.0
322.0
325.0
328.0
311.0
310.0
317.0
323.0
329.0
317.0
308.0
321.0
335.0
322.0
323.0
322.0
312.0
325.0
381.0
477.0
576.0
629.0
529.0
270.0
117.0
184.0
329.0
366.0
316.0
281.0
295.0
318.0
328.0
315.0
314.0
313.0
317.0
326.0
325.0
319.0
314.0
328.0
331.0
329.0
325.0
328.0
333.0
331.0
335.0
335.0
340.0
346.0
343.0
350.0
349.0
355.0
356.0
355.0
357.0
354.0
356.0
369.0
360.0
359.0
354.0
356.0
349.0
339.0
326.0
331.0
322.0
318.0
315.0
305.0
307.0
316.0
310.0
305.0
300.0
304.0
313.0
313.0
308.0
306.0
318.0
320.0
318.0
315.0
317.0
329.0
322.0
319.0
320.0
328.0
324.0
324.0
323.0
326.0
325.0
324.0
322.0
327.0
325.0
330.0
329.0
329.0
319.0
323.0
327.0
325.0
320.0
324.0
327.0
329.0
331.0
331.0
326.0
328.0
333.0
338.0
347.0
348.0
336.0
319.0
314.0
322.0
332.0
319.0
313.0
319.0
326.0
324.0
319.0
320.0
333.0
329.0
336.0
324.0
321.0
322.0
336.0
379.0
473.0
587.0
659.0
526.0
279.0
133.0
202.0
327.0
364.0
320.0
299.0
314.0
331.0
325.0
323.0
326.0
332.0
332.0
332.0
332.0
335.0
341.0
339.0
347.0
340.0
339.0
344.0
348.0
345.0
339.0
347.0
356.0
354.0
349.0
358.0
363.0
355.0
359.0
373.0
365.0
359.0
363.0
366.0
366.0
364.0
361.0
360.0
348.0
346.0
349.0
345.0
339.0
326.0
331.0
326.0
320.0
320.0
322.0
322.0
323.0
319.0
324.0
324.0
321.0
325.0
328.0
327.0
328.0
324.0
328.0
330.0
332.0
331.0
335.0
325.0
327.0
331.0
340.0
341.0
326.0
332.0
337.0
336.0
328.0
324.0
336.0
329.0
331.0
329.0
333.0
326.0
338.0
333.0
329.0
324.0
335.0
329.0
326.0
328.0
338.0
345.0
333.0
341.0
353.0
350.0
325.0
317.0
320.0
325.0
310.0
320.0
323.0
321.0
316.0
315.0
330.0
325.0
321.0
321.0
326.0
320.0
312.0
323.0
363.0
442.0
554.0
632.0
609.0
373.0
147.0
135.0
283.0
390.0
347.0
291.0
285.0
312.0
326.0
322.0
318.0
315.0
328.0
325.0
328.0
329.0
326.0
326.0
333.0
334.0
332.0
332.0
336.0
350.0
341.0
339.0
341.0
341.0
349.0
350.0
347.0
352.0
360.0
361.0
354.0
361.0
368.0
364.0
359.0
363.0
360.0
365.0
348.0
346.0
338.0
329.0
326.0
327.0
318.0
312.0
310.0
310.0
311.0
310.0
314.0
313.0
313.0
313.0
312.0
309.0
312.0
315.0
323.0
316.0
320.0
323.0
325.0
324.0
321.0
318.0
325.0
328.0
324.0
330.0
322.0
325.0
327.0
321.0
324.0
325.0
322.0
320.0
321.0
321.0
325.0
322.0
320.0
320.0
323.0
318.0
325.0
321.0
323.0
320.0
318.0
320.0
323.0
320.0
320.0
320.0
321.0
326.0
328.0
324.0
324.0
330.0
338.0
357.0
336.0
323.0
314.0
315.0
319.0
313.0
305.0
315.0
313.0
316.0
318.0
313.0
319.0
325.0
317.0
313.0
315.0
315.0
310.0
337.0
409.0
536.0
633.0
623.0
420.0
184.0
120.0
231.0
354.0
354.0
298.0
284.0
299.0
312.0
323.0
324.0
299.0
308.0
326.0
319.0
297.0
294.0
269.0
229.0
278.0
348.0
311.0
313.0
386.0
412.0
354.0
334.0
358.0
371.0
353.0
340.0
338.0
337.0
364.0
384.0
358.0
368.0
386.0
361.0
366.0
382.0
354.0
337.0
341.0
320.0
317.0
346.0
343.0
303.0
287.0
298.0
309.0
304.0
314.0
304.0
309.0
310.0
294.0
292.0
292.0
317.0
323.0
308.0
316.0
314.0
329.0
318.0
294.0
316.0
337.0
328.0
315.0
305.0
322.0
323.0
335.0
352.0
317.0
295.0
338.0
352.0
324.0
304.0
313.0
355.0
342.0
298.0
321.0
324.0
333.0
339.0
332.0
302.0
310.0
317.0
337.0
320.0
347.0
348.0
304.0
320.0
328.0
329.0
324.0
341.0
401.0
318.0
285.0
324.0
350.0
346.0
342.0
312.0
321.0
315.0
292.0
280.0
325.0
334.0
307.0
294.0
312.0
318.0
313.0
310.0
306.0
303.0
307.0
340.0
390.0
482.0
588.0
606.0
402.0
196.0
137.0
248.0
346.0
337.0
297.0
292.0
310.0
325.0
354.0
319.0
277.0
314.0
349.0
333.0
302.0
323.0
331.0
311.0
293.0
338.0
347.0
348.0
321.0
329.0
323.0
314.0
340.0
373.0
341.0
308.0
312.0
360.0
396.0
373.0
316.0
355.0
383.0
375.0
355.0
353.0
350.0
347.0
350.0
345.0
354.0
314.0
302.0
331.0
334.0
326.0
307.0
296.0
299.0
321.0
311.0
321.0
296.0
307.0
320.0
321.0
299.0
290.0
320.0
313.0
303.0
316.0
300.0
286.0
326.0
353.0
331.0
310.0
316.0
327.0
322.0
290.0
297.0
308.0
334.0
346.0
288.0
281.0
321.0
335.0
348.0
314.0
309.0
300.0
316.0
330.0
332.0
323.0
299.0
319.0
339.0
336.0
313.0
303.0
309.0
344.0
334.0
319.0
336.0
312.0
309.0
362.0
378.0
342.0
320.0
330.0
324.0
332.0
344.0
338.0
330.0
322.0
324.0
321.0
340.0
341.0
346.0
358.0
355.0
348.0
326.0
338.0
388.0
479.0
588.0
645.0
629.0
416.0
167.0
167.0
312.0
390.0
366.0
320.0
327.0
345.0
329.0
308.0
322.0
340.0
327.0
326.0
321.0
346.0
347.0
334.0
328.0
356.0
378.0
360.0
333.0
338.0
339.0
366.0
353.0
336.0
362.0
375.0
372.0
378.0
366.0
344.0
357.0
390.0
411.0
368.0
343.0
348.0
387.0
387.0
384.0
367.0
322.0
341.0
361.0
347.0
323.0
324.0
341.0
337.0
315.0
311.0
336.0
344.0
343.0
328.0
326.0
322.0
326.0
346.0
336.0
311.0
309.0
347.0
366.0
330.0
324.0
341.0
348.0
330.0
321.0
335.0
363.0
343.0
322.0
322.0
329.0
326.0
355.0
358.0
329.0
295.0
318.0
375.0
348.0
321.0
313.0
330.0
340.0
318.0
312.0
350.0
341.0
323.0
326.0
332.0
328.0
324.0
342.0
352.0
348.0
338.0
347.0
320.0
310.0
300.0
332.0
342.0
322.0
307.0
315.0
311.0
325.0
319.0
321.0
333.0
313.0
314.0
314.0
318.0
313.0
361.0
461.0
558.0
633.0
576.0
336.0
118.0
120.0
301.0
396.0
339.0
280.0
281.0
302.0
311.0
322.0
323.0
305.0
300.0
314.0
316.0
315.0
335.0
343.0
320.0
315.0
336.0
340.0
329.0
335.0
328.0
345.0
348.0
338.0
332.0
351.0
360.0
348.0
344.0
361.0
374.0
341.0
354.0
370.0
369.0
353.0
354.0
357.0
367.0
350.0
334.0
332.0
309.0
311.0
323.0
320.0
305.0
297.0
315.0
308.0
305.0
304.0
301.0
311.0
312.0
310.0
310.0
319.0
322.0
310.0
311.0
305.0
313.0
320.0
318.0
323.0
326.0
319.0
320.0
328.0
317.0
318.0
314.0
321.0
321.0
313.0
313.0
318.0
313.0
329.0
327.0
311.0
320.0
320.0
318.0
318.0
318.0
324.0
320.0
311.0
320.0
326.0
325.0
324.0
319.0
317.0
322.0
319.0
329.0
327.0
328.0
346.0
355.0
324.0
303.0
309.0
317.0
322.0
312.0
306.0
300.0
304.0
322.0
319.0
312.0
309.0
313.0
315.0
318.0
319.0
310.0
332.0
405.0
525.0
620.0
621.0
400.0
153.0
113.0
253.0
369.0
350.0
291.0
285.0
301.0
312.0
324.0
321.0
324.0
315.0
308.0
317.0
330.0
328.0
317.0
316.0
321.0
334.0
332.0
339.0
339.0
327.0
327.0
346.0
353.0
348.0
357.0
358.0
336.0
354.0
361.0
359.0
362.0
359.0
357.0
370.0
365.0
370.0
364.0
347.0
344.0
349.0
332.0
315.0
328.0
331.0
314.0
313.0
309.0
313.0
313.0
305.0
308.0
315.0
312.0
309.0
310.0
322.0
321.0
320.0
317.0
308.0
315.0
332.0
322.0
310.0
315.0
332.0
327.0
317.0
326.0
321.0
325.0
314.0
309.0
316.0
333.0
333.0
318.0
309.0
323.0
332.0
327.0
332.0
326.0
323.0
317.0
323.0
339.0
320.0
311.0
320.0
325.0
329.0
329.0
315.0
314.0
326.0
327.0
328.0
306.0
318.0
344.0
344.0
326.0
321.0
321.0
348.0
357.0
342.0
325.0
314.0
314.0
321.0
322.0
316.0
306.0
310.0
323.0
318.0
305.0
308.0
320.0
332.0
317.0
310.0
316.0
314.0
327.0
377.0
515.0
617.0
625.0
458.0
205.0
125.0
236.0
358.0
361.0
315.0
296.0
301.0
310.0
316.0
326.0
323.0
313.0
316.0
336.0
339.0
315.0
329.0
336.0
333.0
330.0
330.0
339.0
346.0
335.0
322.0
340.0
361.0
363.0
344.0
341.0
347.0
351.0
365.0
373.0
359.0
354.0
371.0
379.0
361.0
341.0
356.0
359.0
328.0
345.0
357.0
350.0
317.0
295.0
296.0
314.0
330.0
312.0
311.0
298.0
281.0
294.0
302.0
290.0
278.0
289.0
307.0
304.0
305.0
306.0
295.0
320.0
325.0
324.0
312.0
329.0
338.0
323.0
302.0
332.0
324.0
338.0
317.0
297.0
320.0
339.0
336.0
304.0
313.0
323.0
308.0
306.0
382.0
359.0
303.0
291.0
310.0
323.0
315.0
303.0
301.0
314.0
296.0
304.0
304.0
302.0
316.0
315.0
307.0
302.0
301.0
309.0
312.0
346.0
349.0
320.0
294.0
296.0
302.0
301.0
293.0
288.0
306.0
300.0
293.0
288.0
290.0
303.0
300.0
306.0
317.0
288.0
281.0
307.0
341.0
444.0
568.0
621.0
535.0
276.0
117.0
168.0
310.0
362.0
318.0
270.0
282.0
307.0
311.0
300.0
298.0
301.0
303.0
302.0
321.0
322.0
323.0
324.0
311.0
321.0
339.0
336.0
328.0
321.0
322.0
335.0
339.0
338.0
343.0
333.0
340.0
366.0
363.0
357.0
354.0
360.0
363.0
355.0
362.0
367.0
364.0
357.0
348.0
339.0
340.0
336.0
311.0
317.0
334.0
331.0
307.0
307.0
310.0
323.0
318.0
318.0
333.0
309.0
311.0
325.0
319.0
325.0
353.0
323.0
294.0
320.0
331.0
312.0
342.0
356.0
327.0
320.0
318.0
338.0
345.0
336.0
334.0
322.0
330.0
339.0
350.0
338.0
340.0
335.0
333.0
332.0
329.0
328.0
337.0
334.0
330.0
329.0
338.0
343.0
336.0
329.0
328.0
335.0
336.0
340.0
339.0
325.0
318.0
317.0
302.0
296.0
300.0
302.0
282.0
288.0
288.0
280.0
285.0
324.0
331.0
304.0
290.0
295.0
321.0
349.0
387.0
502.0
632.0
628.0
467.0
222.0
150.0
261.0
350.0
343.0
313.0
321.0
301.0
309.0
320.0
319.0
329.0
323.0
309.0
313.0
307.0
328.0
364.0
335.0
306.0
313.0
342.0
349.0
325.0
339.0
345.0
326.0
325.0
355.0
355.0
353.0
361.0
353.0
341.0
375.0
384.0
369.0
344.0
354.0
375.0
389.0
374.0
346.0
333.0
337.0
348.0
330.0
328.0
321.0
337.0
313.0
322.0
324.0
326.0
294.0
314.0
348.0
348.0
296.0
293.0
320.0
336.0
336.0
317.0
321.0
337.0
336.0
310.0
304.0
330.0
342.0
327.0
311.0
311.0
331.0
360.0
332.0
301.0
313.0
359.0
361.0
334.0
310.0
300.0
297.0
352.0
351.0
316.0
302.0
326.0
353.0
326.0
315.0
362.0
353.0
308.0
326.0
353.0
325.0
314.0
346.0
353.0
348.0
348.0
344.0
342.0
347.0
334.0
319.0
308.0
324.0
341.0
326.0
340.0
343.0
318.0
320.0
349.0
351.0
334.0
315.0
313.0
329.0
344.0
386.0
462.0
582.0
635.0
571.0
319.0
146.0
196.0
336.0
380.0
335.0
292.0
307.0
323.0
329.0
332.0
320.0
317.0
314.0
339.0
345.0
353.0
353.0
347.0
340.0
340.0
346.0
364.0
353.0
347.0
365.0
367.0
337.0
362.0
371.0
353.0
351.0
369.0
376.0
364.0
362.0
383.0
372.0
354.0
357.0
372.0
374.0
380.0
354.0
350.0
349.0
352.0
343.0
332.0
325.0
324.0
325.0
329.0
326.0
333.0
319.0
315.0
325.0
331.0
335.0
338.0
332.0
329.0
346.0
337.0
331.0
341.0
343.0
338.0
330.0
335.0
347.0
346.0
337.0
334.0
336.0
350.0
364.0
335.0
326.0
338.0
342.0
339.0
348.0
341.0
332.0
336.0
344.0
345.0
337.0
336.0
341.0
334.0
333.0
342.0
338.0
345.0
350.0
336.0
347.0
350.0
353.0
363.0
352.0
332.0
327.0
328.0
336.0
325.0
323.0
333.0
325.0
322.0
332.0
332.0
332.0
331.0
327.0
329.0
322.0
311.0
326.0
371.0
478.0
574.0
640.0
601.0
363.0
152.0
156.0
308.0
387.0
345.0
288.0
294.0
322.0
335.0
327.0
317.0
321.0
331.0
330.0
332.0
336.0
336.0
332.0
330.0
338.0
343.0
339.0
333.0
340.0
352.0
351.0
347.0
343.0
349.0
357.0
365.0
366.0
370.0
367.0
359.0
367.0
369.0
365.0
374.0
367.0
361.0
363.0
358.0
349.0
338.0
330.0
327.0
326.0
328.0
314.0
318.0
313.0
315.0
317.0
321.0
314.0
316.0
312.0
318.0
324.0
327.0
319.0
320.0
321.0
321.0
325.0
331.0
327.0
324.0
326.0
326.0
321.0
320.0
333.0
336.0
326.0
316.0
319.0
331.0
328.0
326.0
315.0
335.0
333.0
324.0
319.0
325.0
312.0
326.0
340.0
325.0
318.0
327.0
331.0
327.0
317.0
322.0
349.0
335.0
321.0
317.0
330.0
338.0
356.0
340.0
292.0
322.0
337.0
327.0
307.0
299.0
306.0
316.0
313.0
289.0
286.0
297.0
286.0
279.0
285.0
264.0
254.0
266.0
329.0
429.0
522.0
598.0
495.0
249.0
90.0
121.0
269.0
348.0
298.0
270.0
291.0
314.0
299.0
292.0
310.0
309.0
301.0
303.0
302.0
307.0
314.0
305.0
290.0
297.0
312.0
327.0
324.0
364.0
352.0
323.0
345.0
356.0
341.0
327.0
361.0
348.0
302.0
338.0
391.0
369.0
335.0
333.0
350.0
378.0
359.0
350.0
348.0
353.0
346.0
314.0
308.0
320.0
333.0
333.0
285.0
263.0
261.0
322.0
342.0
272.0
286.0
347.0
324.0
312.0
325.0
359.0
329.0
256.0
269.0
325.0
351.0
336.0
305.0
277.0
331.0
364.0
322.0
296.0
324.0
343.0
334.0
306.0
306.0
304.0
297.0
329.0
320.0
291.0
323.0
340.0
332.0
317.0
302.0
306.0
312.0
306.0
312.0
312.0
318.0
304.0
290.0
335.0
320.0
302.0
320.0
334.0
318.0
318.0
335.0
337.0
314.0
282.0
276.0
315.0
306.0
278.0
290.0
300.0
299.0
317.0
312.0
300.0
305.0
304.0
311.0
293.0
285.0
332.0
446.0
534.0
653.0
590.0
297.0
92.0
148.0
277.0
340.0
324.0
297.0
298.0
279.0
290.0
313.0
338.0
310.0
290.0
279.0
278.0
270.0
318.0
356.0
351.0
314.0
305.0
317.0
320.0
319.0
314.0
312.0
313.0
346.0
345.0
303.0
285.0
326.0
359.0
362.0
348.0
324.0
347.0
366.0
367.0
351.0
346.0
350.0
343.0
345.0
348.0
336.0
314.0
310.0
314.0
293.0
295.0
298.0
295.0
295.0
294.0
295.0
305.0
293.0
297.0
334.0
347.0
322.0
304.0
283.0
294.0
320.0
315.0
294.0
310.0
314.0
300.0
301.0
316.0
336.0
329.0
314.0
293.0
312.0
336.0
318.0
310.0
305.0
313.0
344.0
354.0
334.0
261.0
268.0
299.0
346.0
340.0
283.0
269.0
320.0
368.0
354.0
306.0
290.0
333.0
386.0
386.0
320.0
282.0
281.0
340.0
388.0
326.0
288.0
306.0
300.0
313.0
322.0
354.0
382.0
373.0
324.0
268.0
315.0
352.0
333.0
370.0
505.0
676.0
686.0
558.0
285.0
145.0
223.0
335.0
366.0
345.0
326.0
346.0
349.0
342.0
350.0
354.0
363.0
344.0
333.0
363.0
387.0
379.0
347.0
360.0
385.0
390.0
370.0
356.0
368.0
402.0
408.0
372.0
316.0
359.0
424.0
418.0
397.0
392.0
400.0
411.0
424.0
421.0
405.0
382.0
408.0
442.0
422.0
389.0
364.0
395.0
409.0
382.0
357.0
334.0
373.0
384.0
379.0
358.0
317.0
335.0
374.0
356.0
322.0
339.0
407.0
397.0
356.0
346.0
375.0
377.0
378.0
362.0
347.0
353.0
363.0
370.0
374.0
359.0
373.0
369.0
364.0
366.0
365.0
346.0
373.0
383.0
366.0
363.0
361.0
356.0
377.0
373.0
374.0
367.0
367.0
371.0
358.0
364.0
392.0
381.0
382.0
385.0
387.0
396.0
382.0
369.0
352.0
348.0
381.0
390.0
352.0
359.0
378.0
390.0
372.0
359.0
363.0
369.0
372.0
358.0
362.0
380.0
390.0
414.0
473.0
623.0
685.0
664.0
444.0
204.0
194.0
343.0
430.0
395.0
332.0
334.0
355.0
397.0
416.0
370.0
355.0
401.0
397.0
362.0
368.0
378.0
379.0
379.0
388.0
385.0
388.0
400.0
394.0
351.0
387.0
410.0
414.0
395.0
384.0
369.0
405.0
427.0
381.0
386.0
425.0
422.0
414.0
400.0
395.0
395.0
391.0
411.0
414.0
366.0
326.0
326.0
401.0
386.0
323.0
344.0
351.0
351.0
337.0
358.0
368.0
361.0
357.0
385.0
405.0
367.0
325.0
344.0
372.0
392.0
354.0
341.0
348.0
381.0
366.0
352.0
368.0
371.0
386.0
369.0
362.0
344.0
362.0
367.0
374.0
381.0
379.0
352.0
349.0
375.0
394.0
390.0
351.0
376.0
382.0
345.0
343.0
376.0
379.0
372.0
357.0
358.0
355.0
368.0
357.0
330.0
342.0
368.0
372.0
365.0
352.0
348.0
358.0
365.0
351.0
355.0
354.0
373.0
421.0
552.0
687.0
685.0
570.0
275.0
155.0
270.0
402.0
413.0
340.0
331.0
368.0
385.0
359.0
358.0
366.0
377.0
370.0
362.0
354.0
371.0
392.0
371.0
369.0
378.0
378.0
388.0
393.0
390.0
385.0
386.0
386.0
406.0
401.0
393.0
398.0
408.0
408.0
406.0
401.0
412.0
417.0
404.0
410.0
409.0
401.0
386.0
392.0
394.0
388.0
379.0
367.0
365.0
383.0
378.0
364.0
366.0
364.0
363.0
365.0
375.0
373.0
367.0
372.0
375.0
375.0
380.0
381.0
377.0
370.0
367.0
379.0
390.0
381.0
377.0
377.0
385.0
382.0
385.0
380.0
381.0
383.0
381.0
388.0
386.0
380.0
381.0
381.0
388.0
384.0
377.0
375.0
385.0
393.0
388.0
392.0
399.0
411.0
394.0
363.0
360.0
386.0
389.0
368.0
358.0
374.0
384.0
376.0
370.0
376.0
381.0
386.0
375.0
388.0
380.0
371.0
380.0
438.0
569.0
696.0
697.0
623.0
362.0
176.0
243.0
399.0
435.0
375.0
333.0
359.0
399.0
395.0
373.0
368.0
377.0
383.0
384.0
361.0
379.0
395.0
389.0
388.0
390.0
398.0
379.0
386.0
393.0
399.0
373.0
399.0
432.0
418.0
383.0
405.0
470.0
416.0
382.0
404.0
485.0
423.0
412.0
399.0
380.0
404.0
418.0
420.0
398.0
347.0
377.0
380.0
361.0
381.0
368.0
339.0
350.0
371.0
370.0
391.0
368.0
364.0
363.0
364.0
352.0
363.0
398.0
375.0
351.0
361.0
381.0
383.0
384.0
370.0
374.0
372.0
363.0
378.0
373.0
356.0
362.0
370.0
381.0
384.0
385.0
346.0
330.0
365.0
392.0
385.0
361.0
362.0
373.0
381.0
374.0
365.0
376.0
390.0
386.0
395.0
394.0
376.0
367.0
359.0
364.0
361.0
365.0
372.0
374.0
361.0
364.0
381.0
369.0
360.0
374.0
375.0
363.0
372.0
367.0
398.0
488.0
626.0
689.0
674.0
456.0
226.0
186.0
313.0
408.0
400.0
359.0
345.0
353.0
368.0
372.0
371.0
362.0
369.0
376.0
369.0
349.0
379.0
406.0
377.0
361.0
378.0
385.0
389.0
375.0
376.0
394.0
391.0
377.0
372.0
385.0
400.0
416.0
393.0
393.0
398.0
411.0
399.0
396.0
399.0
406.0
392.0
381.0
382.0
392.0
391.0
359.0
342.0
345.0
365.0
363.0
355.0
350.0
351.0
357.0
355.0
357.0
356.0
353.0
364.0
372.0
355.0
354.0
374.0
371.0
357.0
363.0
363.0
362.0
364.0
369.0
360.0
356.0
374.0
368.0
357.0
356.0
360.0
375.0
370.0
358.0
359.0
360.0
367.0
366.0
361.0
358.0
359.0
359.0
360.0
364.0
362.0
361.0
358.0
354.0
355.0
363.0
363.0
363.0
362.0
367.0
371.0
377.0
373.0
380.0
371.0
352.0
336.0
351.0
357.0
346.0
340.0
348.0
353.0
355.0
345.0
342.0
345.0
350.0
361.0
369.0
347.0
335.0
353.0
403.0
499.0
640.0
673.0
603.0
348.0
159.0
198.0
342.0
400.0
362.0
323.0
325.0
342.0
350.0
340.0
342.0
347.0
339.0
345.0
358.0
361.0
358.0
353.0
354.0
352.0
357.0
361.0
361.0
365.0
367.0
366.0
363.0
372.0
378.0
383.0
371.0
371.0
387.0
393.0
385.0
383.0
393.0
398.0
385.0
395.0
384.0
377.0
368.0
366.0
368.0
357.0
347.0
340.0
340.0
334.0
334.0
338.0
343.0
331.0
329.0
337.0
343.0
341.0
333.0
333.0
340.0
343.0
344.0
348.0
343.0
344.0
350.0
348.0
346.0
340.0
347.0
350.0
347.0
343.0
345.0
351.0
348.0
349.0
342.0
343.0
344.0
347.0
348.0
343.0
341.0
348.0
345.0
344.0
341.0
349.0
347.0
341.0
349.0
344.0
341.0
350.0
354.0
347.0
341.0
341.0
344.0
348.0
347.0
343.0
350.0
350.0
352.0
352.0
357.0
369.0
364.0
354.0
341.0
340.0
348.0
335.0
328.0
333.0
340.0
340.0
330.0
334.0
340.0
340.0
342.0
340.0
339.0
338.0
332.0
336.0
381.0
471.0
592.0
698.0
627.0
376.0
154.0
157.0
301.0
387.0
354.0
322.0
318.0
331.0
336.0
331.0
329.0
331.0
332.0
349.0
344.0
347.0
346.0
341.0
351.0
351.0
347.0
351.0
356.0
355.0
359.0
359.0
367.0
363.0
364.0
365.0
371.0
382.0
382.0
377.0
378.0
391.0
386.0
378.0
379.0
383.0
386.0
374.0
379.0
369.0
359.0
348.0
344.0
332.0
323.0
326.0
344.0
333.0
324.0
317.0
320.0
329.0
338.0
335.0
336.0
329.0
325.0
326.0
347.0
343.0
332.0
330.0
342.0
338.0
338.0
345.0
344.0
338.0
337.0
352.0
340.0
339.0
347.0
345.0
345.0
348.0
341.0
341.0
348.0
338.0
341.0
351.0
344.0
335.0
337.0
344.0
348.0
350.0
339.0
339.0
343.0
344.0
339.0
341.0
343.0
340.0
343.0
344.0
347.0
347.0
354.0
361.0
359.0
359.0
342.0
334.0
334.0
339.0
334.0
329.0
334.0
337.0
344.0
334.0
331.0
336.0
342.0
341.0
338.0
335.0
332.0
348.0
393.0
492.0
630.0
688.0
589.0
323.0
145.0
207.0
327.0
368.0
342.0
319.0
322.0
339.0
342.0
334.0
334.0
336.0
333.0
343.0
342.0
339.0
355.0
350.0
349.0
344.0
359.0
356.0
353.0
357.0
359.0
366.0
363.0
366.0
367.0
366.0
373.0
387.0
391.0
386.0
378.0
386.0
381.0
390.0
400.0
381.0
378.0
389.0
378.0
365.0
356.0
355.0
357.0
343.0
340.0
346.0
333.0
331.0
331.0
330.0
335.0
340.0
336.0
336.0
334.0
338.0
342.0
347.0
343.0
337.0
345.0
348.0
344.0
344.0
345.0
349.0
349.0
348.0
350.0
353.0
346.0
354.0
350.0
349.0
343.0
353.0
352.0
351.0
342.0
357.0
354.0
348.0
340.0
351.0
353.0
349.0
340.0
350.0
348.0
345.0
341.0
340.0
341.0
343.0
343.0
348.0
352.0
355.0
362.0
358.0
367.0
365.0
346.0
338.0
333.0
340.0
339.0
332.0
333.0
330.0
331.0
338.0
335.0
334.0
340.0
335.0
338.0
334.0
328.0
345.0
364.0
448.0
569.0
692.0
673.0
450.0
186.0
136.0
285.0
411.0
378.0
306.0
297.0
329.0
349.0
334.0
326.0
336.0
344.0
343.0
335.0
340.0
345.0
349.0
342.0
348.0
353.0
358.0
354.0
358.0
356.0
369.0
366.0
366.0
366.0
367.0
383.0
383.0
383.0
387.0
387.0
390.0
388.0
388.0
387.0
385.0
385.0
381.0
377.0
368.0
361.0
357.0
347.0
342.0
340.0
333.0
330.0
329.0
327.0
330.0
342.0
335.0
330.0
330.0
330.0
336.0
341.0
336.0
331.0
335.0
343.0
345.0
339.0
338.0
345.0
342.0
334.0
341.0
348.0
344.0
345.0
339.0
345.0
349.0
342.0
347.0
348.0
344.0
344.0
347.0
350.0
341.0
343.0
342.0
341.0
340.0
346.0
346.0
346.0
342.0
343.0
346.0
341.0
349.0
343.0
348.0
350.0
345.0
347.0
354.0
366.0
372.0
367.0
345.0
331.0
333.0
343.0
349.0
328.0
325.0
332.0
335.0
333.0
331.0
333.0
338.0
336.0
337.0
342.0
333.0
329.0
349.0
415.0
538.0
645.0
675.0
533.0
257.0
122.0
228.0
376.0
390.0
327.0
301.0
322.0
346.0
339.0
330.0
332.0
340.0
345.0
347.0
349.0
346.0
345.0
347.0
356.0
357.0
364.0
362.0
360.0
359.0
362.0
362.0
360.0
365.0
379.0
377.0
372.0
371.0
379.0
395.0
385.0
382.0
383.0
391.0
396.0
385.0
382.0
376.0
367.0
360.0
353.0
353.0
339.0
333.0
331.0
335.0
337.0
323.0
331.0
336.0
333.0
335.0
337.0
334.0
333.0
336.0
334.0
340.0
339.0
339.0
343.0
343.0
340.0
340.0
348.0
346.0
346.0
345.0
349.0
342.0
340.0
349.0
349.0
346.0
342.0
342.0
341.0
346.0
359.0
345.0
335.0
347.0
342.0
343.0
342.0
340.0
341.0
345.0
344.0
340.0
339.0
345.0
342.0
342.0
350.0
344.0
337.0
348.0
343.0
340.0
349.0
342.0
343.0
347.0
344.0
348.0
348.0
362.0
352.0
360.0
369.0
361.0
343.0
338.0
341.0
345.0
334.0
335.0
336.0
336.0
340.0
340.0
337.0
332.0
345.0
352.0
348.0
337.0
342.0
338.0
363.0
441.0
564.0
680.0
673.0
460.0
200.0
132.0
270.0
396.0
381.0
317.0
301.0
336.0
355.0
347.0
331.0
333.0
344.0
342.0
342.0
346.0
350.0
352.0
353.0
350.0
356.0
358.0
358.0
363.0
361.0
359.0
366.0
370.0
375.0
375.0
373.0
375.0
376.0
385.0
387.0
386.0
388.0
388.0
382.0
382.0
384.0
384.0
379.0
370.0
362.0
355.0
353.0
344.0
336.0
335.0
340.0
334.0
330.0
329.0
334.0
335.0
336.0
338.0
339.0
336.0
339.0
338.0
339.0
342.0
343.0
343.0
341.0
343.0
340.0
344.0
350.0
346.0
347.0
345.0
351.0
343.0
346.0
346.0
342.0
349.0
348.0
353.0
342.0
341.0
344.0
346.0
356.0
346.0
350.0
345.0
343.0
345.0
347.0
348.0
341.0
344.0
350.0
346.0
345.0
341.0
343.0
349.0
344.0
348.0
345.0
343.0
347.0
343.0
347.0
346.0
341.0
348.0
343.0
343.0
346.0
354.0
367.0
357.0
353.0
345.0
346.0
346.0
339.0
344.0
336.0
338.0
340.0
347.0
338.0
340.0
344.0
348.0
348.0
344.0
334.0
334.0
362.0
425.0
530.0
654.0
674.0
538.0
267.0
136.0
228.0
380.0
396.0
333.0
307.0
329.0
351.0
347.0
333.0
340.0
349.0
355.0
342.0
348.0
358.0
354.0
349.0
363.0
363.0
358.0
357.0
360.0
360.0
364.0
371.0
373.0
369.0
373.0
378.0
381.0
378.0
385.0
394.0
385.0
384.0
389.0
387.0
385.0
381.0
383.0
382.0
380.0
370.0
361.0
357.0
350.0
346.0
339.0
342.0
341.0
332.0
331.0
339.0
335.0
334.0
335.0
341.0
346.0
340.0
338.0
343.0
341.0
344.0
349.0
346.0
343.0
341.0
352.0
349.0
344.0
348.0
352.0
348.0
346.0
350.0
350.0
345.0
342.0
346.0
345.0
350.0
347.0
342.0
343.0
350.0
348.0
348.0
343.0
349.0
346.0
357.0
349.0
346.0
342.0
354.0
349.0
349.0
345.0
354.0
345.0
354.0
346.0
357.0
349.0
350.0
347.0
347.0
347.0
348.0
359.0
360.0
355.0
347.0
343.0
348.0
347.0
341.0
329.0
332.0
338.0
339.0
339.0
338.0
339.0
349.0
344.0
343.0
342.0
333.0
336.0
365.0
442.0
558.0
661.0
668.0
464.0
203.0
137.0
267.0
377.0
378.0
326.0
309.0
332.0
347.0
340.0
331.0
335.0
345.0
345.0
341.0
343.0
346.0
348.0
348.0
353.0
353.0
355.0
362.0
360.0
357.0
360.0
369.0
377.0
370.0
373.0
381.0
376.0
372.0
379.0
387.0
389.0
384.0
380.0
386.0
388.0
387.0
376.0
370.0
372.0
366.0
354.0
349.0
343.0
350.0
331.0
330.0
329.0
330.0
327.0
339.0
333.0
331.0
328.0
332.0
334.0
336.0
334.0
336.0
339.0
342.0
338.0
341.0
341.0
341.0
340.0
345.0
344.0
340.0
337.0
345.0
342.0
338.0
345.0
340.0
340.0
349.0
341.0
336.0
346.0
344.0
344.0
341.0
337.0
340.0
352.0
342.0
339.0
342.0
340.0
341.0
343.0
340.0
341.0
343.0
337.0
338.0
347.0
340.0
341.0
350.0
341.0
340.0
348.0
343.0
340.0
346.0
344.0
357.0
352.0
347.0
347.0
339.0
343.0
344.0
334.0
328.0
327.0
342.0
335.0
336.0
335.0
334.0
341.0
336.0
338.0
343.0
335.0
330.0
351.0
427.0
567.0
652.0
671.0
470.0
209.0
135.0
260.0
378.0
381.0
314.0
301.0
335.0
345.0
336.0
323.0
337.0
339.0
340.0
344.0
339.0
337.0
346.0
345.0
347.0
348.0
351.0
349.0
350.0
357.0
353.0
358.0
360.0
359.0
367.0
370.0
372.0
373.0
375.0
384.0
379.0
379.0
379.0
380.0
379.0
376.0
379.0
375.0
364.0
357.0
352.0
344.0
332.0
328.0
332.0
329.0
320.0
322.0
323.0
327.0
320.0
323.0
322.0
324.0
322.0
325.0
328.0
327.0
339.0
333.0
329.0
325.0
328.0
335.0
336.0
329.0
325.0
334.0
340.0
332.0
331.0
341.0
342.0
330.0
325.0
334.0
350.0
334.0
325.0
326.0
333.0
341.0
335.0
329.0
329.0
336.0
333.0
336.0
332.0
344.0
337.0
336.0
332.0
344.0
337.0
335.0
330.0
332.0
348.0
341.0
333.0
327.0
336.0
343.0
356.0
348.0
341.0
330.0
329.0
337.0
342.0
329.0
320.0
323.0
330.0
331.0
331.0
328.0
330.0
335.0
333.0
341.0
325.0
321.0
341.0
391.0
501.0
630.0
667.0
547.0
281.0
131.0
206.0
330.0
356.0
326.0
308.0
321.0
336.0
339.0
332.0
329.0
332.0
336.0
345.0
343.0
339.0
344.0
342.0
346.0
342.0
347.0
353.0
351.0
349.0
361.0
361.0
356.0
353.0
365.0
374.0
373.0
369.0
368.0
387.0
381.0
370.0
377.0
391.0
379.0
373.0
374.0
374.0
367.0
366.0
357.0
354.0
345.0
336.0
332.0
332.0
331.0
339.0
327.0
327.0
325.0
331.0
344.0
338.0
329.0
330.0
342.0
337.0
333.0
338.0
346.0
341.0
336.0
342.0
343.0
344.0
341.0
343.0
347.0
341.0
349.0
346.0
345.0
337.0
345.0
350.0
354.0
338.0
339.0
350.0
346.0
352.0
340.0
340.0
348.0
346.0
344.0
342.0
354.0
344.0
345.0
346.0
344.0
345.0
342.0
342.0
342.0
357.0
345.0
351.0
346.0
351.0
350.0
344.0
344.0
347.0
356.0
355.0
352.0
354.0
345.0
342.0
343.0
352.0
334.0
325.0
336.0
346.0
339.0
337.0
348.0
338.0
342.0
346.0
341.0
334.0
339.0
382.0
477.0
619.0
672.0
637.0
393.0
150.0
155.0
329.0
410.0
365.0
302.0
307.0
341.0
350.0
344.0
333.0
337.0
345.0
345.0
342.0
345.0
345.0
346.0
352.0
353.0
347.0
352.0
361.0
363.0
360.0
359.0
361.0
370.0
373.0
367.0
369.0
376.0
387.0
378.0
382.0
381.0
380.0
393.0
397.0
383.0
379.0
377.0
374.0
366.0
356.0
353.0
350.0
341.0
334.0
331.0
324.0
324.0
341.0
335.0
326.0
319.0
331.0
335.0
331.0
326.0
334.0
336.0
338.0
338.0
338.0
338.0
338.0
337.0
339.0
341.0
342.0
340.0
343.0
339.0
337.0
341.0
344.0
342.0
340.0
343.0
340.0
339.0
348.0
340.0
340.0
336.0
336.0
338.0
343.0
344.0
334.0
336.0
336.0
335.0
339.0
338.0
336.0
346.0
342.0
338.0
346.0
342.0
353.0
355.0
364.0
358.0
356.0
342.0
323.0
330.0
339.0
330.0
329.0
327.0
332.0
333.0
330.0
324.0
327.0
345.0
339.0
333.0
328.0
325.0
349.0
398.0
529.0
638.0
668.0
548.0
250.0
111.0
210.0
363.0
388.0
324.0
294.0
318.0
349.0
337.0
327.0
324.0
335.0
348.0
336.0
338.0
337.0
347.0
341.0
339.0
352.0
350.0
349.0
347.0
353.0
357.0
358.0
362.0
365.0
363.0
375.0
379.0
373.0
373.0
374.0
390.0
377.0
381.0
387.0
389.0
379.0
381.0
375.0
369.0
359.0
353.0
349.0
342.0
339.0
324.0
323.0
326.0
328.0
331.0
330.0
335.0
329.0
329.0
324.0
326.0
329.0
339.0
336.0
332.0
333.0
332.0
344.0
337.0
335.0
336.0
337.0
338.0
332.0
333.0
345.0
343.0
330.0
336.0
349.0
342.0
336.0
334.0
344.0
340.0
335.0
341.0
343.0
335.0
333.0
338.0
337.0
348.0
350.0
346.0
348.0
349.0
367.0
370.0
339.0
332.0
334.0
335.0
322.0
326.0
331.0
344.0
333.0
329.0
324.0
323.0
336.0
341.0
335.0
337.0
329.0
327.0
359.0
426.0
544.0
654.0
661.0
491.0
205.0
122.0
249.0
382.0
378.0
324.0
300.0
319.0
349.0
339.0
332.0
330.0
331.0
344.0
344.0
344.0
341.0
346.0
351.0
345.0
353.0
351.0
352.0
350.0
363.0
362.0
366.0
366.0
366.0
365.0
367.0
373.0
377.0
374.0
375.0
384.0
382.0
387.0
376.0
380.0
380.0
372.0
371.0
365.0
365.0
352.0
342.0
339.0
334.0
331.0
323.0
324.0
328.0
332.0
334.0
323.0
326.0
326.0
334.0
333.0
330.0
342.0
334.0
332.0
334.0
332.0
339.0
340.0
337.0
336.0
336.0
344.0
342.0
337.0
340.0
342.0
343.0
336.0
345.0
342.0
341.0
340.0
338.0
337.0
340.0
347.0
338.0
332.0
335.0
337.0
347.0
339.0
338.0
344.0
346.0
343.0
352.0
363.0
364.0
343.0
326.0
331.0
334.0
326.0
324.0
328.0
333.0
331.0
330.0
325.0
328.0
337.0
340.0
334.0
329.0
325.0
326.0
351.0
430.0
555.0
656.0
673.0
463.0
191.0
123.0
257.0
384.0
372.0
308.0
301.0
329.0
347.0
336.0
324.0
328.0
342.0
343.0
336.0
