307.0
312324.0
324.0
324.0
322.0
322.0
321.0
322.0
320.0
320.0
319.0
320.0
325.0
332.0
339.0
344.0
348.0
347.0
344.0
327.0
316.0
326.0
338.0
338.0
321.0
320.0
322.0
331.0
339.0
338.0
343.0
348.0
331.0
328.0
327.0
314.0
326.0
325.0
314.0
309.0
312.0
318.0
321.0
313.0
311.0
314.0
308.0
318.0
327.0
329.0
315.0
322.0
367.0
481.0
642.0
648.0
556.0
309.0
157.0
211.0
315.0
346.0
326.0
303.0
309.0
319.0
318.0
305.0
315.0
326.0
310.0
311.0
327.0
325.0
321.0
321.0
324.0
329.0
330.0
332.0
334.0
332.0
334.0
337.0
334.0
338.0
352.0
356.0
354.0
360.0
367.0
365.0
370.0
373.0
377.0
379.0
374.0
369.0
370.0
371.0
368.0
353.0
339.0
333.0
332.0
321.0
308.0
304.0
304.0
306.0
299.0
298.0
301.0
301.0
297.0
294.0
301.0
306.0
309.0
304.0
300.0
305.0
305.0
298.0
309.0
309.0
306.0
305.0
307.0
304.0
304.0
308.0
313.0
309.0
300.0
302.0
307.0
307.0
311.0
307.0
306.0
307.0
304.0
308.0
316.0
320.0
314.0
315.0
326.0
332.0
325.0
313.0
296.0
298.0
312.0
309.0
294.0
288.0
301.0
312.0
308.0
296.0
289.0
299.0
317.0
304.0
303.0
301.0
302.0
347.0
430.0
558.0
648.0
633.0
440.0
192.0
131.0
270.0
370.0
351.0
300.0
284.0
300.0
318.0
315.0
302.0
298.0
310.0
324.0
322.0
311.0
309.0
325.0
326.0
323.0
321.0
320.0
331.0
336.0
336.0
335.0
341.0
354.0
343.0
354.0
369.0
366.0
363.0
376.0
380.0
382.0
384.0
383.0
388.0
394.0
391.0
389.0
379.0
358.0
334.0
329.0
320.0
321.0
329.0
324.0
311.0
301.0
298.0
305.0
305.0
297.0
299.0
296.0
296.0
310.0
312.0
304.0
312.0
312.0
313.0
312.0
312.0
308.0
305.0
320.0
316.0
308.0
315.0
312.0
317.0
324.0
318.0
305.0
305.0
315.0
319.0
318.0
325.0
323.0
322.0
331.0
325.0
330.0
332.0
313.0
315.0
320.0
319.0
297.0
294.0
294.0
308.0
313.0
296.0
300.0
304.0
311.0
322.0
305.0
293.0
307.0
313.0
308.0
357.0
466.0
618.0
649.0
631.0
423.0
196.0
159.0
290.0
385.0
349.0
312.0
297.0
289.0
318.0
330.0
288.0
297.0
318.0
315.0
309.0
316.0
323.0
333.0
307.0
315.0
326.0
326.0
335.0
344.0
338.0
343.0
348.0
363.0
343.0
331.0
359.0
388.0
391.0
350.0
353.0
391.0
397.0
384.0
392.0
391.0
374.0
374.0
393.0
386.0
337.0
308.0
313.0
322.0
315.0
302.0
302.0
299.0
304.0
313.0
305.0
294.0
300.0
309.0
314.0
304.0
296.0
293.0
315.0
311.0
305.0
321.0
324.0
316.0
311.0
317.0
305.0
331.0
303.0
291.0
314.0
332.0
324.0
307.0
308.0
320.0
325.0
326.0
316.0
296.0
311.0
331.0
332.0
315.0
317.0
335.0
352.0
336.0
324.0
325.0
313.0
310.0
312.0
309.0
311.0
308.0
288.0
303.0
320.0
310.0
301.0
299.0
307.0
331.0
314.0
291.0
293.0
336.0
393.0
501.0
620.0
648.0
581.0
325.0
139.0
193.0
334.0
374.0
346.0
313.0
313.0
307.0
296.0
307.0
329.0
337.0
320.0
319.0
327.0
329.0
332.0
340.0
329.0
322.0
331.0
334.0
339.0
345.0
345.0
358.0
353.0
349.0
345.0
362.0
374.0
367.0
368.0
375.0
380.0
397.0
395.0
389.0
394.0
386.0
379.0
385.0
379.0
351.0
336.0
344.0
326.0
301.0
310.0
335.0
322.0
293.0
288.0
300.0
316.0
316.0
303.0
303.0
305.0
295.0
312.0
316.0
306.0
308.0
307.0
312.0
313.0
315.0
316.0
311.0
307.0
319.0
323.0
318.0
312.0
318.0
321.0
317.0
313.0
305.0
313.0
317.0
304.0
303.0
321.0
324.0
313.0
308.0
302.0
306.0
328.0
333.0
333.0
306.0
283.0
299.0
339.0
340.0
309.0
304.0
312.0
322.0
326.0
321.0
326.0
332.0
325.0
322.0
336.0
341.0
330.0
319.0
315.0
324.0
316.0
304.0
317.0
316.0
309.0
315.0
328.0
324.0
304.0
303.0
308.0
324.0
326.0
322.0
311.0
326.0
368.0
465.0
615.0
650.0
641.0
448.0
190.0
153.0
294.0
397.0
360.0
304.0
311.0
338.0
336.0
315.0
323.0
350.0
328.0
293.0
310.0
348.0
353.0
330.0
336.0
356.0
334.0
324.0
335.0
345.0
347.0
354.0
351.0
352.0
361.0
377.0
379.0
369.0
377.0
382.0
386.0
395.0
398.0
398.0
378.0
383.0
395.0
413.0
400.0
382.0
354.0
332.0
339.0
330.0
307.0
308.0
323.0
307.0
288.0
297.0
315.0
326.0
312.0
293.0
288.0
297.0
318.0
316.0
305.0
291.0
309.0
331.0
312.0
291.0
304.0
322.0
329.0
324.0
296.0
300.0
317.0
320.0
318.0
321.0
324.0
319.0
314.0
293.0
312.0
335.0
312.0
293.0
304.0
321.0
323.0
316.0
306.0
312.0
313.0
309.0
314.0
315.0
326.0
323.0
308.0
301.0
310.0
320.0
313.0
310.0
325.0
327.0
317.0
317.0
333.0
333.0
327.0
328.0
312.0
306.0
315.0
313.0
307.0
315.0
317.0
314.0
308.0
301.0
306.0
316.0
314.0
296.0
305.0
332.0
332.0
296.0
294.0
334.0
402.0
526.0
644.0
649.0
592.0
334.0
148.0
197.0
339.0
392.0
340.0
298.0
307.0
323.0
326.0
315.0
310.0
309.0
318.0
338.0
338.0
332.0
326.0
326.0
335.0
332.0
337.0
337.0
343.0
336.0
334.0
343.0
342.0
356.0
371.0
368.0
354.0
369.0
388.0
392.0
380.0
381.0
393.0
388.0
388.0
395.0
400.0
390.0
377.0
356.0
340.0
335.0
333.0
333.0
318.0
288.0
290.0
309.0
309.0
299.0
298.0
300.0
306.0
308.0
304.0
302.0
298.0
299.0
304.0
307.0
308.0
304.0
312.0
315.0
311.0
304.0
314.0
327.0
305.0
300.0
320.0
327.0
304.0
299.0
312.0
324.0
322.0
318.0
313.0
311.0
313.0
326.0
326.0
303.0
293.0
305.0
320.0
330.0
323.0
309.0
307.0
315.0
320.0
311.0
310.0
322.0
322.0
306.0
317.0
323.0
314.0
306.0
309.0
322.0
336.0
341.0
327.0
300.0
303.0
311.0
321.0
323.0
315.0
305.0
313.0
316.0
303.0
297.0
311.0
334.0
329.0
316.0
316.0
317.0
315.0
329.0
378.0
490.0
635.0
649.0
608.0
362.0
157.0
181.0
316.0
379.0
345.0
307.0
312.0
337.0
332.0
323.0
319.0
320.0
324.0
326.0
325.0
327.0
330.0
331.0
332.0
335.0
346.0
339.0
331.0
347.0
352.0
343.0
349.0
361.0
366.0
364.0
370.0
373.0
370.0
372.0
383.0
395.0
390.0
384.0
385.0
389.0
392.0
397.0
392.0
359.0
334.0
337.0
331.0
332.0
328.0
316.0
301.0
296.0
305.0
321.0
319.0
296.0
289.0
299.0
316.0
314.0
300.0
304.0
314.0
305.0
304.0
315.0
317.0
317.0
320.0
319.0
308.0
306.0
324.0
322.0
313.0
314.0
320.0
324.0
316.0
310.0
311.0
315.0
321.0
316.0
316.0
321.0
322.0
311.0
313.0
315.0
316.0
317.0
318.0
320.0
318.0
316.0
315.0
311.0
317.0
326.0
326.0
314.0
307.0
316.0
325.0
320.0
324.0
323.0
320.0
319.0
316.0
318.0
328.0
336.0
330.0
319.0
321.0
323.0
311.0
302.0
305.0
318.0
331.0
316.0
311.0
317.0
320.0
316.0
320.0
312.0
314.0
328.0
324.0
312.0
323.0
384.0
513.0
648.0
650.0
621.0
380.0
149.0
179.0
330.0
384.0
350.0
315.0
314.0
332.0
334.0
312.0
313.0
329.0
335.0
324.0
327.0
331.0
332.0
335.0
330.0
332.0
339.0
340.0
343.0
346.0
357.0
352.0
337.0
355.0
365.0
370.0
371.0
371.0
378.0
387.0
390.0
393.0
397.0
402.0
399.0
383.0
395.0
402.0
395.0
389.0
360.0
325.0
325.0
332.0
328.0
322.0
304.0
297.0
307.0
318.0
306.0
291.0
301.0
319.0
313.0
301.0
304.0
314.0
320.0
302.0
294.0
325.0
331.0
312.0
302.0
308.0
314.0
322.0
322.0
317.0
317.0
315.0
312.0
312.0
325.0
330.0
316.0
318.0
317.0
319.0
323.0
324.0
324.0
316.0
316.0
317.0
312.0
320.0
325.0
309.0
309.0
326.0
333.0
325.0
311.0
314.0
332.0
331.0
316.0
313.0
316.0
321.0
324.0
328.0
319.0
314.0
324.0
325.0
315.0
326.0
332.0
320.0
305.0
317.0
341.0
345.0
330.0
309.0
306.0
327.0
341.0
319.0
299.0
303.0
317.0
326.0
322.0
319.0
314.0
311.0
324.0
324.0
316.0
317.0
329.0
327.0
322.0
337.0
398.0
518.0
646.0
649.0
601.0
370.0
167.0
183.0
320.0
387.0
350.0
306.0
308.0
331.0
332.0
321.0
321.0
328.0
333.0
330.0
323.0
323.0
332.0
335.0
342.0
344.0
332.0
333.0
343.0
343.0
343.0
350.0
360.0
363.0
361.0
359.0
366.0
373.0
387.0
400.0
393.0
381.0
382.0
399.0
403.0
400.0
403.0
401.0
383.0
372.0
358.0
348.0
328.0
324.0
326.0
326.0
312.0
301.0
299.0
295.0
311.0
320.0
299.0
292.0
302.0
306.0
309.0
311.0
313.0
302.0
297.0
314.0
327.0
310.0
297.0
312.0
324.0
325.0
309.0
310.0
321.0
323.0
316.0
309.0
315.0
326.0
319.0
320.0
325.0
315.0
320.0
322.0
310.0
309.0
322.0
328.0
321.0
318.0
315.0
320.0
325.0
323.0
304.0
299.0
310.0
319.0
315.0
320.0
318.0
309.0
310.0
316.0
321.0
314.0
313.0
314.0
316.0
314.0
317.0
328.0
322.0
315.0
326.0
337.0
324.0
324.0
330.0
313.0
316.0
328.0
325.0
330.0
327.0
318.0
326.0
339.0
334.0
332.0
333.0
326.0
326.0
318.0
318.0
323.0
322.0
320.0
319.0
312.0
312.0
323.0
326.0
318.0
318.0
322.0
337.0
338.0
317.0
314.0
361.0
449.0
570.0
649.0
648.0
542.0
272.0
140.0
233.0
371.0
382.0
333.0
300.0
315.0
346.0
353.0
332.0
314.0
328.0
344.0
341.0
322.0
309.0
328.0
355.0
344.0
331.0
338.0
355.0
354.0
335.0
336.0
358.0
366.0
353.0
351.0
367.0
375.0
378.0
378.0
381.0
393.0
399.0
413.0
400.0
390.0
392.0
404.0
408.0
401.0
372.0
355.0
342.0
332.0
329.0
328.0
315.0
306.0
307.0
308.0
308.0
309.0
304.0
301.0
296.0
301.0
301.0
302.0
316.0
317.0
307.0
301.0
302.0
314.0
322.0
320.0
306.0
292.0
312.0
328.0
325.0
317.0
305.0
306.0
324.0
324.0
312.0
305.0
314.0
324.0
327.0
315.0
309.0
320.0
323.0
314.0
314.0
314.0
321.0
318.0
306.0
311.0
313.0
313.0
327.0
324.0
316.0
319.0
320.0
312.0
319.0
320.0
311.0
314.0
321.0
321.0
321.0
315.0
308.0
324.0
333.0
317.0
308.0
312.0
316.0
323.0
327.0
330.0
318.0
314.0
327.0
331.0
320.0
312.0
319.0
331.0
341.0
331.0
317.0
322.0
326.0
316.0
320.0
336.0
323.0
301.0
303.0
318.0
323.0
324.0
315.0
307.0
326.0
335.0
327.0
316.0
311.0
316.0
335.0
394.0
504.0
636.0
649.0
612.0
383.0
164.0
180.0
324.0
382.0
346.0
316.0
320.0
322.0
322.0
322.0
331.0
339.0
342.0
328.0
313.0
324.0
339.0
342.0
334.0
332.0
331.0
337.0
350.0
352.0
351.0
347.0
347.0
352.0
362.0
373.0
371.0
364.0
380.0
392.0
400.0
406.0
387.0
386.0
395.0
406.0
407.0
401.0
396.0
387.0
369.0
359.0
342.0
334.0
328.0
317.0
309.0
316.0
307.0
300.0
295.0
293.0
301.0
309.0
311.0
307.0
304.0
302.0
311.0
323.0
316.0
306.0
295.0
304.0
308.0
310.0
314.0
315.0
318.0
317.0
311.0
321.0
320.0
308.0
311.0
319.0
311.0
300.0
319.0
324.0
318.0
319.0
318.0
320.0
316.0
312.0
313.0
313.0
315.0
314.0
307.0
314.0
322.0
321.0
313.0
309.0
314.0
328.0
331.0
316.0
304.0
305.0
320.0
323.0
314.0
319.0
325.0
318.0
310.0
313.0
324.0
323.0
316.0
312.0
320.0
332.0
330.0
312.0
306.0
320.0
323.0
319.0
315.0
324.0
321.0
326.0
324.0
322.0
317.0
319.0
319.0
325.0
331.0
333.0
328.0
331.0
326.0
323.0
329.0
336.0
329.0
309.0
310.0
320.0
317.0
311.0
315.0
319.0
328.0
328.0
320.0
317.0
333.0
329.0
313.0
313.0
343.0
407.0
525.0
647.0
649.0
578.0
330.0
160.0
202.0
329.0
383.0
356.0
319.0
312.0
329.0
345.0
336.0
313.0
317.0
334.0
339.0
332.0
328.0
330.0
338.0
342.0
338.0
337.0
337.0
347.0
348.0
352.0
353.0
358.0
361.0
354.0
365.0
373.0
368.0
379.0
389.0
394.0
391.0
390.0
391.0
398.0
412.0
417.0
407.0
395.0
392.0
384.0
355.0
332.0
333.0
324.0
311.0
303.0
306.0
305.0
300.0
303.0
308.0
314.0
307.0
300.0
300.0
300.0
310.0
317.0
312.0
294.0
297.0
319.0
314.0
308.0
310.0
314.0
327.0
317.0
305.0
311.0
319.0
326.0
326.0
321.0
313.0
308.0
318.0
320.0
320.0
303.0
308.0
320.0
318.0
328.0
319.0
302.0
303.0
324.0
338.0
315.0
304.0
308.0
318.0
317.0
317.0
328.0
332.0
308.0
303.0
310.0
310.0
315.0
310.0
307.0
320.0
331.0
330.0
322.0
298.0
304.0
320.0
331.0
319.0
321.0
329.0
312.0
310.0
331.0
331.0
313.0
318.0
318.0
325.0
328.0
328.0
326.0
304.0
305.0
332.0
344.0
328.0
322.0
330.0
321.0
309.0
322.0
326.0
306.0
307.0
317.0
318.0
313.0
308.0
316.0
326.0
316.0
315.0
325.0
326.0
316.0
319.0
358.0
455.0
602.0
650.0
638.0
441.0
196.0
164.0
283.0
366.0
358.0
307.0
297.0
321.0
345.0
333.0
312.0
315.0
330.0
341.0
338.0
332.0
325.0
326.0
338.0
339.0
335.0
332.0
340.0
348.0
335.0
332.0
350.0
358.0
353.0
358.0
358.0
365.0
378.0
382.0
376.0
386.0
400.0
404.0
397.0
392.0
398.0
406.0
408.0
405.0
370.0
343.0
353.0
348.0
331.0
322.0
319.0
300.0
297.0
313.0
317.0
316.0
308.0
287.0
291.0
307.0
315.0
312.0
308.0
307.0
296.0
294.0
309.0
318.0
313.0
308.0
320.0
310.0
298.0
307.0
313.0
323.0
322.0
313.0
309.0
309.0
306.0
319.0
330.0
308.0
298.0
314.0
322.0
313.0
310.0
315.0
322.0
320.0
312.0
310.0
314.0
315.0
313.0
314.0
319.0
318.0
322.0
322.0
317.0
318.0
309.0
311.0
322.0
318.0
314.0
328.0
317.0
305.0
318.0
331.0
324.0
309.0
317.0
340.0
330.0
306.0
309.0
322.0
325.0
322.0
322.0
327.0
321.0
315.0
320.0
330.0
328.0
321.0
319.0
323.0
331.0
332.0
330.0
325.0
325.0
339.0
344.0
336.0
325.0
325.0
338.0
332.0
325.0
331.0
322.0
317.0
313.0
319.0
332.0
322.0
311.0
326.0
339.0
329.0
321.0
324.0
327.0
341.0
377.0
486.0
632.0
650.0
632.0
422.0
181.0
159.0
311.0
403.0
370.0
313.0
312.0
342.0
343.0
322.0
320.0
339.0
335.0
337.0
340.0
337.0
331.0
346.0
350.0
342.0
342.0
346.0
343.0
348.0
358.0
362.0
360.0
357.0
360.0
370.0
378.0
384.0
377.0
371.0
383.0
395.0
402.0
408.0
415.0
405.0
406.0
408.0
410.0
406.0
381.0
353.0
343.0
337.0
339.0
327.0
310.0
305.0
318.0
314.0
302.0
296.0
297.0
303.0
304.0
304.0
300.0
310.0
312.0
310.0
303.0
303.0
311.0
318.0
309.0
308.0
319.0
308.0
294.0
310.0
324.0
326.0
309.0
305.0
313.0
316.0
317.0
321.0
321.0
312.0
298.0
314.0
333.0
327.0
291.0
291.0
320.0
329.0
317.0
321.0
322.0
306.0
306.0
323.0
321.0
309.0
311.0
318.0
312.0
312.0
326.0
333.0
313.0
312.0
322.0
323.0
317.0
309.0
311.0
322.0
327.0
326.0
317.0
314.0
319.0
315.0
322.0
316.0
316.0
324.0
325.0
311.0
310.0
330.0
332.0
317.0
315.0
316.0
319.0
326.0
332.0
324.0
307.0
319.0
342.0
354.0
324.0
306.0
325.0
331.0
313.0
306.0
320.0
323.0
310.0
315.0
320.0
318.0
319.0
328.0
323.0
318.0
313.0
320.0
361.0
452.0
573.0
650.0
645.0
491.0
232.0
147.0
258.0
367.0
371.0
326.0
311.0
327.0
330.0
328.0
330.0
332.0
328.0
328.0
334.0
333.0
331.0
331.0
331.0
338.0
349.0
347.0
344.0
351.0
344.0
346.0
354.0
359.0
361.0
372.0
380.0
371.0
366.0
380.0
389.0
393.0
394.0
405.0
416.0
423.0
413.0
385.0
395.0
414.0
398.0
369.0
356.0
357.0
349.0
323.0
301.0
306.0
319.0
320.0
304.0
294.0
299.0
303.0
314.0
313.0
305.0
302.0
300.0
306.0
312.0
311.0
312.0
314.0
309.0
307.0
314.0
321.0
325.0
315.0
304.0
306.0
316.0
320.0
316.0
328.0
333.0
300.0
289.0
310.0
329.0
329.0
321.0
304.0
311.0
320.0
316.0
312.0
311.0
313.0
319.0
321.0
313.0
306.0
306.0
313.0
317.0
320.0
313.0
307.0
314.0
320.0
325.0
320.0
315.0
310.0
318.0
328.0
321.0
310.0
314.0
322.0
336.0
327.0
305.0
308.0
328.0
326.0
306.0
304.0
326.0
341.0
328.0
320.0
316.0
313.0
320.0
325.0
330.0
322.0
317.0
331.0
340.0
341.0
319.0
313.0
319.0
322.0
325.0
324.0
319.0
303.0
311.0
311.0
317.0
328.0
330.0
324.0
326.0
324.0
317.0
339.0
393.0
522.0
649.0
649.0
570.0
320.0
155.0
205.0
329.0
378.0
348.0
324.0
325.0
330.0
329.0
323.0
311.0
322.0
342.0
342.0
331.0
328.0
328.0
338.0
345.0
342.0
336.0
334.0
343.0
350.0
351.0
353.0
352.0
350.0
365.0
377.0
358.0
362.0
385.0
393.0
386.0
394.0
398.0
404.0
406.0
408.0
408.0
409.0
402.0
399.0
393.0
370.0
347.0
322.0
316.0
328.0
328.0
312.0
303.0
298.0
292.0
301.0
308.0
314.0
306.0
300.0
297.0
298.0
302.0
304.0
301.0
306.0
319.0
316.0
297.0
298.0
315.0
318.0
313.0
299.0
303.0
319.0
318.0
320.0
313.0
309.0
314.0
310.0
316.0
321.0
311.0
299.0
309.0
320.0
321.0
312.0
307.0
312.0
317.0
317.0
315.0
310.0
300.0
315.0
316.0
306.0
297.0
330.0
335.0
305.0
298.0
311.0
329.0
325.0
310.0
305.0
317.0
325.0
315.0
311.0
325.0
337.0
318.0
307.0
310.0
315.0
325.0
321.0
312.0
318.0
325.0
325.0
323.0
322.0
323.0
331.0
331.0
316.0
319.0
336.0
342.0
326.0
316.0
315.0
316.0
323.0
325.0
304.0
303.0
325.0
334.0
322.0
310.0
307.0
328.0
330.0
324.0
318.0
323.0
349.0
397.0
526.0
649.0
649.0
567.0
308.0
144.0
195.0
339.0
409.0
365.0
293.0
285.0
321.0
343.0
338.0
312.0
312.0
328.0
338.0
332.0
327.0
334.0
342.0
337.0
335.0
329.0
326.0
345.0
352.0
346.0
346.0
358.0
366.0
356.0
358.0
363.0
379.0
386.0
375.0
374.0
385.0
403.0
410.0
406.0
412.0
406.0
402.0
402.0
386.0
368.0
363.0
356.0
329.0
315.0
312.0
319.0
316.0
316.0
298.0
294.0
300.0
304.0
301.0
296.0
298.0
299.0
310.0
315.0
311.0
302.0
303.0
307.0
309.0
308.0
302.0
309.0
322.0
320.0
310.0
299.0
301.0
314.0
328.0
332.0
309.0
296.0
311.0
328.0
313.0
307.0
315.0
322.0
313.0
293.0
308.0
330.0
324.0
306.0
305.0
305.0
314.0
315.0
320.0
318.0
313.0
315.0
310.0
311.0
309.0
313.0
313.0
315.0
320.0
309.0
308.0
316.0
317.0
313.0
323.0
328.0
307.0
304.0
314.0
318.0
320.0
317.0
307.0
316.0
329.0
333.0
322.0
306.0
314.0
326.0
325.0
331.0
335.0
325.0
320.0
320.0
321.0
332.0
321.0
300.0
309.0
328.0
322.0
302.0
302.0
323.0
324.0
318.0
320.0
323.0
317.0
316.0
369.0
462.0
575.0
648.0
641.0
482.0
242.0
158.0
247.0
368.0
385.0
339.0
310.0
309.0
320.0
333.0
331.0
323.0
322.0
324.0
334.0
346.0
335.0
326.0
330.0
326.0
340.0
354.0
347.0
335.0
343.0
348.0
348.0
352.0
367.0
378.0
362.0
347.0
369.0
401.0
398.0
384.0
388.0
398.0
407.0
408.0
409.0
409.0
401.0
399.0
390.0
377.0
356.0
337.0
336.0
327.0
316.0
323.0
315.0
304.0
310.0
300.0
300.0
302.0
307.0
305.0
302.0
301.0
300.0
308.0
315.0
315.0
308.0
296.0
307.0
325.0
309.0
301.0
299.0
309.0
327.0
319.0
304.0
306.0
320.0
339.0
313.0
296.0
301.0
313.0
318.0
325.0
322.0
317.0
315.0
317.0
311.0
300.0
309.0
321.0
323.0
314.0
310.0
316.0
331.0
328.0
303.0
300.0
312.0
316.0
322.0
327.0
318.0
304.0
306.0
315.0
318.0
317.0
322.0
329.0
320.0
307.0
318.0
329.0
322.0
314.0
309.0
327.0
330.0
317.0
316.0
322.0
325.0
340.0
343.0
327.0
324.0
325.0
326.0
322.0
304.0
300.0
312.0
324.0
330.0
326.0
312.0
306.0
320.0
327.0
319.0
308.0
314.0
341.0
403.0
515.0
647.0
649.0
569.0
320.0
162.0
205.0
321.0
375.0
345.0
302.0
308.0
343.0
347.0
312.0
301.0
329.0
337.0
333.0
330.0
333.0
332.0
328.0
333.0
337.0
344.0
343.0
338.0
336.0
338.0
342.0
356.0
363.0
356.0
349.0
357.0
379.0
379.0
370.0
381.0
398.0
399.0
391.0
387.0
398.0
417.0
401.0
384.0
387.0
384.0
364.0
343.0
339.0
319.0
309.0
310.0
317.0
311.0
302.0
294.0
299.0
302.0
303.0
296.0
306.0
320.0
313.0
297.0
301.0
304.0
312.0
301.0
302.0
309.0
304.0
303.0
310.0
314.0
316.0
306.0
302.0
306.0
311.0
320.0
321.0
304.0
298.0
306.0
309.0
316.0
316.0
304.0
309.0
318.0
328.0
324.0
309.0
299.0
297.0
311.0
324.0
313.0
304.0
314.0
329.0
328.0
308.0
312.0
319.0
323.0
319.0
317.0
318.0
318.0
311.0
310.0
317.0
325.0
327.0
332.0
328.0
325.0
322.0
314.0
312.0
316.0
314.0
312.0
314.0
316.0
315.0
317.0
319.0
320.0
314.0
324.0
320.0
320.0
315.0
325.0
369.0
446.0
563.0
649.0
645.0
499.0
241.0
159.0
254.0
346.0
358.0
326.0
316.0
316.0
334.0
332.0
319.0
320.0
336.0
342.0
327.0
320.0
324.0
338.0
347.0
339.0
334.0
338.0
346.0
353.0
341.0
335.0
346.0
360.0
359.0
354.0
361.0
367.0
377.0
383.0
367.0
367.0
384.0
406.0
406.0
398.0
403.0
407.0
392.0
381.0
371.0
371.0
365.0
346.0
326.0
324.0
318.0
313.0
310.0
312.0
304.0
306.0
312.0
306.0
292.0
295.0
318.0
332.0
305.0
294.0
298.0
315.0
324.0
320.0
311.0
312.0
309.0
309.0
315.0
321.0
315.0
307.0
304.0
318.0
334.0
325.0
320.0
322.0
311.0
303.0
316.0
320.0
320.0
315.0
307.0
303.0
318.0
328.0
329.0
321.0
299.0
303.0
324.0
334.0
327.0
310.0
304.0
310.0
317.0
326.0
330.0
329.0
312.0
296.0
307.0
327.0
330.0
317.0
307.0
315.0
324.0
316.0
319.0
328.0
316.0
310.0
322.0
328.0
330.0
328.0
326.0
326.0
319.0
310.0
316.0
330.0
327.0
309.0
308.0
310.0
324.0
334.0
322.0
307.0
309.0
318.0
326.0
327.0
322.0
328.0
350.0
428.0
577.0
649.0
647.0
521.0
259.0
150.0
247.0
361.0
374.0
331.0
304.0
313.0
329.0
337.0
324.0
319.0
323.0
327.0
327.0
329.0
338.0
335.0
336.0
340.0
337.0
337.0
337.0
336.0
344.0
353.0
360.0
344.0
347.0
375.0
388.0
373.0
358.0
369.0
380.0
383.0
400.0
413.0
399.0
386.0
399.0
414.0
420.0
406.0
372.0
350.0
347.0
344.0
334.0
327.0
316.0
310.0
304.0
303.0
300.0
298.0
306.0
313.0
300.0
296.0
303.0
308.0
310.0
302.0
304.0
307.0
309.0
307.0
308.0
323.0
309.0
296.0
309.0
320.0
325.0
315.0
312.0
309.0
317.0
318.0
323.0
317.0
321.0
317.0
315.0
325.0
314.0
312.0
321.0
315.0
309.0
317.0
327.0
321.0
309.0
315.0
332.0
323.0
305.0
312.0
331.0
320.0
301.0
305.0
329.0
337.0
318.0
310.0
320.0
329.0
328.0
306.0
301.0
334.0
339.0
306.0
296.0
317.0
335.0
336.0
313.0
309.0
312.0
321.0
328.0
344.0
347.0
321.0
311.0
312.0
322.0
336.0
331.0
309.0
293.0
308.0
329.0
328.0
318.0
313.0
321.0
325.0
322.0
325.0
326.0
319.0
336.0
404.0
537.0
649.0
649.0
584.0
326.0
158.0
203.0
324.0
377.0
352.0
322.0
315.0
315.0
323.0
341.0
338.0
313.0
308.0
330.0
338.0
331.0
328.0
328.0
331.0
332.0
347.0
350.0
335.0
332.0
339.0
346.0
349.0
357.0
373.0
368.0
354.0
356.0
385.0
396.0
385.0
381.0
394.0
404.0
400.0
394.0
404.0
414.0
396.0
381.0
374.0
353.0
342.0
331.0
323.0
307.0
309.0
312.0
301.0
308.0
309.0
297.0
292.0
292.0
301.0
310.0
303.0
301.0
305.0
313.0
307.0
299.0
301.0
311.0
316.0
314.0
307.0
312.0
321.0
315.0
305.0
296.0
312.0
320.0
316.0
317.0
321.0
310.0
314.0
318.0
298.0
293.0
314.0
320.0
311.0
309.0
317.0
323.0
322.0
305.0
301.0
312.0
330.0
326.0
302.0
294.0
308.0
323.0
313.0
309.0
319.0
326.0
318.0
314.0
322.0
325.0
311.0
311.0
312.0
317.0
313.0
309.0
324.0
332.0
316.0
303.0
314.0
320.0
326.0
329.0
317.0
311.0
329.0
335.0
313.0
302.0
310.0
320.0
318.0
312.0
303.0
308.0
328.0
314.0
303.0
315.0
327.0
322.0
311.0
309.0
312.0
332.0
364.0
432.0
574.0
649.0
648.0
519.0
238.0
133.0
243.0
370.0
372.0
317.0
310.0
340.0
332.0
321.0
312.0
306.0
321.0
335.0
331.0
320.0
315.0
337.0
350.0
326.0
317.0
328.0
346.0
346.0
339.0
336.0
350.0
366.0
357.0
334.0
347.0
376.0
389.0
389.0
376.0
375.0
395.0
401.0
407.0
397.0
389.0
410.0
406.0
386.0
377.0
384.0
362.0
344.0
322.0
311.0
318.0
316.0
304.0
293.0
296.0
302.0
296.0
290.0
300.0
307.0
300.0
293.0
294.0
306.0
302.0
295.0
296.0
304.0
309.0
308.0
312.0
311.0
300.0
296.0
305.0
316.0
313.0
306.0
305.0
310.0
305.0
306.0
323.0
323.0
307.0
303.0
301.0
310.0
320.0
314.0
314.0
312.0
303.0
305.0
310.0
314.0
320.0
312.0
308.0
317.0
314.0
297.0
313.0
323.0
310.0
304.0
303.0
317.0
325.0
309.0
302.0
315.0
339.0
322.0
294.0
298.0
330.0
340.0
310.0
288.0
299.0
325.0
342.0
339.0
332.0
306.0
292.0
314.0
335.0
322.0
307.0
305.0
314.0
315.0
303.0
306.0
327.0
324.0
309.0
310.0
320.0
325.0
306.0
315.0
386.0
498.0
625.0
649.0
596.0
364.0
185.0
194.0
303.0
369.0
352.0
315.0
305.0
313.0
328.0
338.0
329.0
312.0
303.0
321.0
352.0
355.0
317.0
314.0
336.0
332.0
323.0
338.0
350.0
343.0
336.0
337.0
345.0
353.0
364.0
371.0
365.0
364.0
371.0
390.0
406.0
391.0
376.0
396.0
407.0
403.0
400.0
410.0
412.0
396.0
366.0
358.0
351.0
342.0
333.0
311.0
302.0
313.0
316.0
307.0
288.0
298.0
314.0
308.0
299.0
303.0
314.0
305.0
300.0
300.0
312.0
320.0
307.0
301.0
308.0
322.0
323.0
314.0
306.0
310.0
320.0
323.0
317.0
306.0
307.0
317.0
333.0
329.0
300.0
305.0
327.0
322.0
309.0
315.0
326.0
321.0
311.0
316.0
329.0
332.0
319.0
299.0
307.0
321.0
325.0
325.0
322.0
322.0
329.0
328.0
314.0
303.0
311.0
325.0
329.0
329.0
327.0
307.0
303.0
322.0
332.0
323.0
313.0
311.0
321.0
337.0
341.0
328.0
324.0
322.0
319.0
320.0
324.0
317.0
313.0
322.0
324.0
313.0
310.0
324.0
328.0
321.0
324.0
336.0
330.0
313.0
325.0
377.0
491.0
598.0
649.0
626.0
411.0
196.0
191.0
305.0
367.0
360.0
339.0
338.0
348.0
329.0
303.0
316.0
335.0
342.0
326.0
321.0
327.0
327.0
336.0
349.0
359.0
340.0
319.0
331.0
347.0
353.0
346.0
353.0
361.0
354.0
355.0
368.0
378.0
379.0
388.0
383.0
386.0
398.0
398.0
397.0
398.0
403.0
397.0
391.0
391.0
394.0
369.0
338.0
331.0
331.0
322.0
314.0
300.0
292.0
303.0
304.0
297.0
289.0
301.0
306.0
301.0
296.0
300.0
286.0
298.0
312.0
295.0
274.0
291.0
326.0
304.0
288.0
306.0
327.0
318.0
300.0
297.0
303.0
316.0
325.0
312.0
304.0
314.0
318.0
310.0
310.0
316.0
316.0
315.0
306.0
300.0
313.0
327.0
316.0
304.0
308.0
317.0
320.0
318.0
322.0
328.0
322.0
310.0
298.0
314.0
323.0
315.0
304.0
314.0
335.0
346.0
330.0
315.0
329.0
338.0
314.0
304.0
308.0
317.0
319.0
309.0
300.0
320.0
349.0
320.0
285.0
302.0
340.0
345.0
301.0
305.0
401.0
556.0
649.0
643.0
514.0
282.0
169.0
253.0
332.0
320.0
315.0
316.0
313.0
324.0
333.0
323.0
318.0
319.0
330.0
346.0
320.0
303.0
325.0
342.0
334.0
323.0
339.0
346.0
347.0
352.0
335.0
340.0
354.0
360.0
365.0
350.0
351.0
372.0
380.0
381.0
388.0
388.0
393.0
389.0
390.0
390.0
389.0
392.0
387.0
375.0
357.0
358.0
353.0
332.0
322.0
311.0
305.0
311.0
315.0
316.0
305.0
290.0
300.0
307.0
303.0
305.0
309.0
300.0
309.0
326.0
331.0
302.0
289.0
317.0
323.0
308.0
309.0
317.0
319.0
323.0
317.0
313.0
313.0
322.0
317.0
317.0
314.0
315.0
319.0
316.0
306.0
310.0
325.0
332.0
320.0
297.0
303.0
321.0
318.0
309.0
320.0
319.0
307.0
310.0
316.0
306.0
315.0
330.0
329.0
324.0
308.0
314.0
330.0
340.0
341.0
333.0
326.0
324.0
312.0
308.0
306.0
313.0
320.0
310.0
301.0
306.0
317.0
315.0
304.0
306.0
314.0
317.0
317.0
316.0
315.0
345.0
452.0
606.0
650.0
642.0
449.0
192.0
150.0
279.0
377.0
361.0
309.0
301.0
324.0
333.0
310.0
301.0
312.0
325.0
328.0
324.0
320.0
322.0
329.0
334.0
328.0
323.0
332.0
340.0
336.0
341.0
347.0
347.0
342.0
343.0
349.0
357.0
371.0
368.0
372.0
386.0
386.0
377.0
384.0
405.0
398.0
386.0
389.0
404.0
395.0
374.0
355.0
335.0
319.0
323.0
324.0
313.0
308.0
321.0
306.0
279.0
291.0
306.0
312.0
309.0
298.0
295.0
302.0
309.0
307.0
300.0
298.0
301.0
308.0
314.0
315.0
313.0
311.0
304.0
307.0
316.0
316.0
311.0
302.0
311.0
321.0
316.0
309.0
301.0
309.0
313.0
312.0
307.0
309.0
312.0
314.0
313.0
321.0
326.0
310.0
298.0
305.0
313.0
320.0
317.0
324.0
326.0
325.0
341.0
340.0
315.0
305.0
313.0
324.0
315.0
296.0
294.0
313.0
322.0
303.0
288.0
304.0
319.0
315.0
306.0
301.0
309.0
314.0
314.0
324.0
378.0
513.0
643.0
649.0
588.0
340.0
147.0
174.0
319.0
379.0
343.0
308.0
313.0
318.0
317.0
311.0
317.0
326.0
323.0
323.0
335.0
322.0
315.0
323.0
330.0
332.0
341.0
351.0
326.0
324.0
347.0
353.0
347.0
347.0
357.0
374.0
376.0
357.0
354.0
372.0
401.0
403.0
382.0
385.0
398.0
399.0
395.0
397.0
401.0
381.0
351.0
344.0
351.0
328.0
308.0
313.0
321.0
306.0
286.0
287.0
296.0
304.0
303.0
312.0
314.0
304.0
290.0
301.0
330.0
317.0
284.0
289.0
304.0
317.0
315.0
303.0
306.0
318.0
321.0
311.0
301.0
307.0
314.0
317.0
317.0
314.0
316.0
303.0
314.0
318.0
307.0
309.0
315.0
317.0
313.0
311.0
317.0
318.0
307.0
307.0
325.0
328.0
309.0
304.0
321.0
322.0
309.0
310.0
316.0
324.0
326.0
322.0
323.0
331.0
337.0
336.0
342.0
335.0
322.0
310.0
314.0
325.0
314.0
302.0
306.0
315.0
323.0
314.0
312.0
317.0
310.0
300.0
305.0
314.0
320.0
316.0
315.0
342.0
421.0
555.0
649.0
648.0
538.0
255.0
137.0
233.0
358.0
386.0
340.0
300.0
296.0
318.0
332.0
330.0
320.0
325.0
330.0
327.0
333.0
331.0
328.0
321.0
322.0
336.0
352.0
352.0
337.0
334.0
340.0
355.0
357.0
345.0
345.0
359.0
377.0
386.0
369.0
357.0
377.0
395.0
396.0
395.0
404.0
414.0
418.0
391.0
365.0
370.0
374.0
362.0
343.0
327.0
308.0
307.0
319.0
313.0
309.0
312.0
301.0
302.0
295.0
293.0
303.0
313.0
311.0
305.0
299.0
298.0
310.0
318.0
314.0
316.0
322.0
317.0
301.0
305.0
322.0
316.0
307.0
312.0
315.0
315.0
322.0
315.0
312.0
324.0
329.0
316.0
308.0
313.0
316.0
309.0
316.0
322.0
320.0
310.0
306.0
309.0
318.0
320.0
323.0
320.0
313.0
310.0
315.0
323.0
320.0
315.0
325.0
322.0
310.0
308.0
326.0
338.0
326.0
320.0
324.0
338.0
351.0
348.0
327.0
307.0
300.0
309.0
322.0
323.0
328.0
321.0
303.0
300.0
310.0
319.0
325.0
324.0
311.0
306.0
325.0
331.0
318.0
338.0
417.0
562.0
649.0
647.0
525.0
259.0
153.0
236.0
344.0
370.0
336.0
297.0
316.0
334.0
335.0
318.0
302.0
327.0
347.0
343.0
332.0
323.0
332.0
347.0
348.0
330.0
315.0
331.0
354.0
355.0
343.0
337.0
353.0
372.0
373.0
362.0
359.0
385.0
393.0
377.0
371.0
387.0
404.0
407.0
395.0
398.0
408.0
406.0
396.0
382.0
368.0
345.0
327.0
331.0
333.0
326.0
317.0
320.0
303.0
290.0
305.0
315.0
305.0
296.0
308.0
322.0
320.0
302.0
318.0
317.0
306.0
311.0
317.0
310.0
319.0
335.0
323.0
302.0
299.0
318.0
317.0
318.0
317.0
310.0
310.0
325.0
332.0
319.0
302.0
313.0
325.0
313.0
317.0
333.0
324.0
296.0
303.0
328.0
333.0
310.0
298.0
312.0
321.0
316.0
317.0
332.0
320.0
302.0
317.0
337.0
330.0
306.0
305.0
322.0
338.0
333.0
319.0
337.0
355.0
345.0
319.0
307.0
319.0
326.0
317.0
310.0
304.0
310.0
314.0
314.0
319.0
323.0
313.0
315.0
332.0
324.0
305.0
308.0
340.0
379.0
473.0
615.0
649.0
619.0
404.0
193.0
165.0
285.0
386.0
375.0
321.0
294.0
301.0
328.0
330.0
322.0
326.0
317.0
314.0
329.0
333.0
334.0
337.0
332.0
323.0
328.0
338.0
342.0
345.0
342.0
340.0
350.0
364.0
361.0
355.0
354.0
361.0
382.0
394.0
377.0
369.0
383.0
401.0
405.0
404.0
400.0
400.0
384.0
384.0
368.0
350.0
346.0
340.0
337.0
326.0
296.0
300.0
327.0
310.0
286.0
281.0
300.0
316.0
309.0
303.0
298.0
307.0
314.0
315.0
314.0
308.0
303.0
308.0
308.0
302.0
308.0
316.0
329.0
318.0
309.0
311.0
326.0
323.0
302.0
311.0
317.0
321.0
325.0
321.0
309.0
307.0
312.0
328.0
327.0
313.0
313.0
317.0
324.0
313.0
313.0
333.0
324.0
306.0
308.0
323.0
324.0
318.0
317.0
324.0
314.0
314.0
332.0
327.0
313.0
332.0
355.0
347.0
323.0
319.0
317.0
316.0
321.0
316.0
303.0
305.0
316.0
315.0
309.0
315.0
325.0
313.0
300.0
314.0
332.0
323.0
299.0
314.0
383.0
523.0
648.0
649.0
599.0
350.0
149.0
182.0
326.0
393.0
338.0
289.0
309.0
340.0
343.0
329.0
307.0
305.0
322.0
327.0
328.0
330.0
337.0
335.0
328.0
338.0
337.0
321.0
334.0
362.0
357.0
332.0
334.0
354.0
364.0
367.0
369.0
371.0
379.0
382.0
384.0
391.0
398.0
389.0
386.0
405.0
429.0
405.0
374.0
366.0
371.0
372.0
348.0
316.0
316.0
325.0
317.0
304.0
299.0
313.0
309.0
289.0
293.0
311.0
320.0
305.0
286.0
296.0
310.0
315.0
314.0
317.0
307.0
297.0
301.0
317.0
320.0
314.0
312.0
314.0
317.0
319.0
314.0
312.0
310.0
316.0
313.0
311.0
316.0
315.0
313.0
318.0
307.0
298.0
314.0
322.0
315.0
320.0
323.0
309.0
303.0
310.0
323.0
329.0
316.0
301.0
306.0
319.0
319.0
321.0
317.0
315.0
323.0
317.0
320.0
323.0
329.0
328.0
337.0
343.0
332.0
320.0
312.0
312.0
315.0
321.0
323.0
308.0
284.0
288.0
318.0
327.0
323.0
321.0
311.0
303.0
305.0
310.0
310.0
319.0
365.0
445.0
574.0
650.0
642.0
476.0
226.0
145.0
252.0
372.0
380.0
332.0
304.0
303.0
313.0
322.0
324.0
322.0
324.0
327.0
324.0
320.0
325.0
326.0
330.0
342.0
356.0
340.0
322.0
324.0
338.0
345.0
348.0
347.0
357.0
362.0
361.0
368.0
375.0
387.0
390.0
400.0
368.0
367.0
398.0
409.0
396.0
397.0
403.0
390.0
371.0
360.0
354.0
357.0
328.0
302.0
312.0
333.0
310.0
289.0
290.0
301.0
310.0
309.0
306.0
312.0
309.0
299.0
299.0
305.0
320.0
312.0
290.0
296.0
311.0
319.0
315.0
304.0
309.0
315.0
327.0
316.0
310.0
313.0
317.0
320.0
318.0
313.0
310.0
309.0
306.0
310.0
321.0
322.0
308.0
298.0
311.0
318.0
318.0
317.0
312.0
309.0
308.0
314.0
320.0
331.0
316.0
300.0
307.0
322.0
324.0
307.0
297.0
315.0
331.0
327.0
321.0
314.0
312.0
332.0
331.0
322.0
337.0
345.0
335.0
322.0
311.0
306.0
303.0
304.0
307.0
317.0
319.0
317.0
304.0
304.0
306.0
308.0
321.0
322.0
325.0
331.0
316.0
339.0
451.0
608.0
649.0
639.0
451.0
189.0
148.0
285.0
383.0
355.0
299.0
299.0
328.0
338.0
326.0
315.0
312.0
329.0
326.0
312.0
324.0
343.0
335.0
316.0
315.0
332.0
347.0
337.0
332.0
339.0
359.0
357.0
342.0
341.0
361.0
378.0
372.0
361.0
364.0
379.0
397.0
387.0
383.0
394.0
408.0
410.0
390.0
375.0
386.0
385.0
365.0
347.0
333.0
319.0
315.0
315.0
306.0
300.0
318.0
307.0
280.0
279.0
311.0
329.0
305.0
276.0
284.0
311.0
322.0
312.0
297.0
294.0
300.0
303.0
311.0
319.0
311.0
295.0
299.0
311.0
308.0
302.0
312.0
316.0
307.0
307.0
309.0
304.0
305.0
322.0
323.0
305.0
293.0
307.0
325.0
312.0
292.0
301.0
314.0
320.0
317.0
303.0
307.0
315.0
311.0
305.0
316.0
311.0
304.0
306.0
315.0
316.0
322.0
328.0
329.0
325.0
314.0
306.0
307.0
320.0
320.0
304.0
296.0
303.0
315.0
316.0
310.0
302.0
304.0
314.0
324.0
324.0
315.0
301.0
310.0
352.0
421.0
554.0
649.0
646.0
509.0
259.0
162.0
254.0
342.0
337.0
313.0
314.0
323.0
326.0
330.0
325.0
316.0
308.0
321.0
336.0
337.0
324.0
315.0
325.0
338.0
347.0
334.0
328.0
335.0
341.0
343.0
344.0
349.0
371.0
370.0
347.0
345.0
362.0
381.0
392.0
396.0
390.0
377.0
378.0
387.0
400.0
415.0
398.0
372.0
367.0
365.0
356.0
344.0
334.0
330.0
318.0
305.0
295.0
299.0
313.0
318.0
305.0
302.0
312.0
305.0
296.0
300.0
308.0
313.0
311.0
309.0
322.0
328.0
309.0
301.0
305.0
316.0
319.0
317.0
323.0
328.0
322.0
299.0
302.0
316.0
328.0
336.0
325.0
309.0
302.0
318.0
326.0
323.0
317.0
315.0
314.0
317.0
330.0
328.0
313.0
311.0
318.0
323.0
325.0
321.0
309.0
311.0
328.0
330.0
322.0
312.0
311.0
315.0
323.0
335.0
332.0
326.0
320.0
321.0
335.0
353.0
343.0
329.0
315.0
302.0
315.0
324.0
315.0
303.0
301.0
314.0
321.0
318.0
311.0
309.0
320.0
322.0
315.0
309.0
313.0
341.0
396.0
509.0
633.0
648.0
593.0
356.0
169.0
196.0
335.0
383.0
333.0
292.0
306.0
331.0
333.0
327.0
320.0
316.0
321.0
335.0
333.0
327.0
324.0
331.0
333.0
336.0
345.0
334.0
330.0
337.0
348.0
351.0
358.0
349.0
352.0
363.0
374.0
376.0
377.0
381.0
392.0
387.0
384.0
391.0
400.0
402.0
400.0
404.0
399.0
392.0
373.0
353.0
344.0
339.0
322.0
305.0
316.0
313.0
293.0
291.0
304.0
314.0
308.0
290.0
295.0
316.0
320.0
300.0
287.0
302.0
327.0
335.0
306.0
291.0
299.0
318.0
330.0
318.0
301.0
306.0
323.0
328.0
308.0
308.0
321.0
332.0
324.0
306.0
310.0
320.0
318.0
312.0
318.0
321.0
315.0
308.0
319.0
319.0
319.0
328.0
319.0
303.0
305.0
314.0
323.0
323.0
317.0
309.0
318.0
321.0
314.0
311.0
315.0
323.0
325.0
322.0
322.0
327.0
335.0
334.0
324.0
326.0
335.0
338.0
328.0
313.0
312.0
319.0
312.0
311.0
317.0
318.0
306.0
297.0
310.0
329.0
328.0
321.0
324.0
324.0
312.0
307.0
336.0
411.0
554.0
649.0
647.0
524.0
260.0
142.0
238.0
373.0
380.0
326.0
301.0
327.0
328.0
311.0
316.0
326.0
324.0
318.0
331.0
337.0
330.0
327.0
336.0
343.0
336.0
332.0
340.0
351.0
350.0
349.0
340.0
344.0
360.0
367.0
365.0
359.0
365.0
383.0
381.0
372.0
384.0
405.0
413.0
398.0
391.0
395.0
399.0
395.0
385.0
371.0
357.0
339.0
318.0
319.0
320.0
313.0
314.0
310.0
304.0
306.0
302.0
297.0
306.0
310.0
312.0
316.0
306.0
292.0
301.0
322.0
316.0
308.0
316.0
305.0
303.0
309.0
314.0
323.0
325.0
319.0
319.0
309.0
303.0
317.0
335.0
319.0
302.0
307.0
312.0
320.0
316.0
310.0
310.0
327.0
327.0
304.0
300.0
320.0
330.0
309.0
296.0
314.0
330.0
326.0
299.0
299.0
322.0
330.0
328.0
310.0
302.0
309.0
321.0
325.0
313.0
314.0
319.0
326.0
327.0
318.0
319.0
341.0
353.0
315.0
294.0
311.0
333.0
320.0
302.0
302.0
316.0
314.0
306.0
314.0
328.0
324.0
313.0
310.0
320.0
320.0
310.0
318.0
358.0
455.0
605.0
649.0
632.0
437.0
201.0
171.0
296.0
372.0
353.0
309.0
315.0
332.0
331.0
328.0
316.0
309.0
321.0
336.0
333.0
325.0
321.0
330.0
330.0
331.0
340.0
342.0
334.0
343.0
355.0
347.0
345.0
344.0
348.0
360.0
367.0
369.0
371.0
376.0
379.0
389.0
396.0
388.0
388.0
400.0
407.0
415.0
402.0
377.0
372.0
371.0
365.0
351.0
320.0
304.0
311.0
316.0
316.0
317.0
308.0
296.0
294.0
307.0
312.0
305.0
298.0
306.0
320.0
311.0
296.0
298.0
310.0
319.0
325.0
311.0
294.0
305.0
312.0
311.0
319.0
326.0
311.0
304.0
311.0
322.0
320.0
316.0
316.0
320.0
318.0
312.0
303.0
313.0
324.0
313.0
303.0
315.0
329.0
322.0
315.0
312.0
315.0
325.0
328.0
311.0
309.0
322.0
330.0
321.0
310.0
317.0
323.0
326.0
323.0
320.0
325.0
338.0
338.0
329.0
327.0
322.0
326.0
335.0
318.0
290.0
294.0
315.0
321.0
318.0
325.0
314.0
309.0
316.0
322.0
332.0
331.0
320.0
308.0
331.0
423.0
567.0
649.0
644.0
512.0
265.0
149.0
239.0
368.0
382.0
340.0
312.0
307.0
326.0
332.0
324.0
320.0
326.0
332.0
330.0
333.0
332.0
329.0
332.0
338.0
339.0
342.0
352.0
351.0
341.0
335.0
347.0
352.0
354.0
363.0
372.0
363.0
369.0
382.0
386.0
382.0
389.0
395.0
399.0
399.0
392.0
391.0
397.0
395.0
386.0
368.0
352.0
343.0
333.0
331.0
331.0
297.0
286.0
308.0
326.0
313.0
287.0
288.0
307.0
313.0
305.0
300.0
306.0
317.0
311.0
307.0
311.0
306.0
312.0
329.0
325.0
297.0
296.0
314.0
324.0
320.0
316.0
312.0
304.0
309.0
318.0
323.0
311.0
300.0
311.0
332.0
333.0
308.0
297.0
307.0
315.0
312.0
309.0
316.0
322.0
320.0
317.0
308.0
311.0
320.0
321.0
315.0
312.0
318.0
321.0
316.0
312.0
328.0
332.0
320.0
309.0
308.0
330.0
352.0
350.0
318.0
293.0
307.0
330.0
323.0
312.0
295.0
307.0
335.0
316.0
315.0
304.0
304.0
321.0
326.0
346.0
337.0
309.0
317.0
361.0
443.0
572.0
649.0
642.0
479.0
220.0
149.0
272.0
370.0
369.0
332.0
321.0
328.0
325.0
332.0
338.0
332.0
333.0
337.0
322.0
327.0
333.0
343.0
352.0
342.0
330.0
340.0
363.0
354.0
330.0
341.0
371.0
366.0
344.0
352.0
372.0
375.0
386.0
394.0
392.0
394.0
379.0
396.0
411.0
411.0
400.0
403.0
401.0
399.0
387.0
374.0
364.0
340.0
336.0
337.0
325.0
312.0
306.0
300.0
308.0
320.0
310.0
296.0
296.0
315.0
325.0
306.0
297.0
312.0
315.0
307.0
313.0
323.0
315.0
303.0
308.0
310.0
317.0
326.0
328.0
311.0
309.0
322.0
316.0
314.0
324.0
323.0
308.0
302.0
314.0
318.0
331.0
333.0
297.0
284.0
314.0
344.0
328.0
299.0
305.0
323.0
306.0
308.0
312.0
318.0
315.0
321.0
322.0
323.0
317.0
308.0
317.0
332.0
333.0
330.0
336.0
343.0
328.0
302.0
300.0
316.0
322.0
306.0
301.0
308.0
315.0
312.0
305.0
306.0
312.0
313.0
307.0
312.0
319.0
315.0
317.0
355.0
447.0
573.0
649.0
627.0
427.0
205.0
160.0
268.0
357.0
353.0
323.0
316.0
307.0
309.0
321.0
327.0
322.0
312.0
314.0
324.0
327.0
320.0
317.0
326.0
342.0
334.0
321.0
320.0
338.0
347.0
344.0
343.0
344.0
349.0
349.0
362.0
376.0
371.0
358.0
364.0
388.0
408.0
408.0
378.0
367.0
386.0
407.0
399.0
380.0
365.0
361.0
352.0
332.0
319.0
318.0
315.0
304.0
308.0
306.0
290.0
287.0
299.0
302.0
295.0
301.0
303.0
293.0
293.0
303.0
309.0
315.0
311.0
305.0
302.0
305.0
316.0
320.0
308.0
299.0
305.0
318.0
319.0
305.0
290.0
296.0
315.0
317.0
309.0
312.0
308.0
310.0
317.0
323.0
301.0
288.0
301.0
327.0
326.0
304.0
292.0
307.0
328.0
316.0
297.0
303.0
322.0
330.0
315.0
306.0
312.0
311.0
313.0
321.0
334.0
342.0
344.0
333.0
317.0
311.0
322.0
324.0
304.0
286.0
299.0
313.0
311.0
309.0
311.0
307.0
307.0
329.0
337.0
304.0
295.0
308.0
325.0
362.0
463.0
615.0
649.0
606.0
373.0
168.0
182.0
326.0
372.0
335.0
304.0
299.0
314.0
329.0
328.0
320.0
310.0
314.0
320.0
328.0
335.0
325.0
318.0
329.0
339.0
334.0
335.0
337.0
344.0
348.0
333.0
331.0
342.0
358.0
372.0
373.0
362.0
361.0
381.0
392.0
390.0
387.0
385.0
387.0
399.0
398.0
395.0
396.0
397.0
374.0
359.0
356.0
334.0
308.0
307.0
321.0
314.0
290.0
285.0
301.0
315.0
313.0
296.0
305.0
308.0
288.0
292.0
305.0
315.0
307.0
299.0
309.0
316.0
311.0
298.0
315.0
332.0
313.0
293.0
305.0
318.0
326.0
305.0
300.0
317.0
324.0
319.0
317.0
313.0
300.0
303.0
315.0
316.0
312.0
310.0
314.0
315.0
317.0
315.0
310.0
310.0
318.0
317.0
306.0
303.0
321.0
339.0
324.0
303.0
316.0
346.0
352.0
328.0
323.0
323.0
303.0
301.0
314.0
312.0
308.0
306.0
316.0
314.0
314.0
310.0
305.0
305.0
312.0
320.0
325.0
310.0
305.0
351.0
436.0
577.0
649.0
640.0
467.0
216.0
168.0
268.0
354.0
356.0
320.0
305.0
316.0
327.0
332.0
324.0
307.0
309.0
320.0
329.0
326.0
320.0
322.0
320.0
320.0
335.0
346.0
341.0
346.0
354.0
350.0
336.0
341.0
351.0
357.0
362.0
369.0
375.0
374.0
379.0
388.0
395.0
398.0
397.0
403.0
409.0
407.0
392.0
384.0
376.0
361.0
345.0
335.0
327.0
