370.0
376.0
390.0
378.0
33277.0
302.0
317.0
328.0
335.0
336.0
334.0
327.0
321.0
316.0
310.0
305.0
302.0
299.0
297.0
296.0
295.0
297.0
314.0
325.0
318.0
308.0
328.0
341.0
320.0
310.0
339.0
359.0
334.0
327.0
337.0
357.0
356.0
346.0
350.0
355.0
348.0
359.0
370.0
373.0
358.0
366.0
389.0
384.0
382.0
381.0
369.0
388.0
387.0
390.0
386.0
373.0
368.0
376.0
375.0
342.0
329.0
337.0
337.0
321.0
326.0
322.0
323.0
311.0
312.0
321.0
333.0
320.0
314.0
321.0
328.0
323.0
324.0
329.0
322.0
315.0
324.0
338.0
336.0
324.0
324.0
334.0
338.0
338.0
335.0
329.0
316.0
328.0
342.0
341.0
330.0
334.0
336.0
328.0
324.0
334.0
331.0
336.0
335.0
326.0
331.0
332.0
334.0
337.0
336.0
327.0
322.0
330.0
331.0
318.0
321.0
347.0
349.0
324.0
314.0
324.0
340.0
338.0
333.0
333.0
331.0
331.0
339.0
342.0
330.0
329.0
338.0
346.0
333.0
338.0
363.0
361.0
334.0
329.0
341.0
338.0
318.0
322.0
337.0
332.0
320.0
333.0
334.0
326.0
323.0
341.0
339.0
330.0
323.0
334.0
350.0
361.0
430.0
551.0
632.0
555.0
331.0
165.0
158.0
245.0
320.0
333.0
321.0
310.0
318.0
321.0
323.0
327.0
341.0
345.0
337.0
332.0
342.0
353.0
351.0
339.0
348.0
363.0
357.0
354.0
361.0
361.0
358.0
367.0
371.0
375.0
369.0
378.0
382.0
376.0
375.0
394.0
403.0
380.0
367.0
386.0
405.0
390.0
371.0
378.0
385.0
369.0
354.0
348.0
348.0
334.0
328.0
337.0
338.0
329.0
333.0
338.0
329.0
322.0
333.0
342.0
336.0
324.0
332.0
344.0
338.0
335.0
342.0
350.0
342.0
337.0
338.0
345.0
338.0
334.0
341.0
350.0
340.0
337.0
346.0
354.0
341.0
338.0
346.0
347.0
331.0
344.0
356.0
341.0
328.0
340.0
353.0
342.0
329.0
341.0
349.0
335.0
332.0
347.0
357.0
337.0
332.0
341.0
343.0
335.0
344.0
350.0
342.0
329.0
341.0
350.0
342.0
340.0
351.0
359.0
352.0
346.0
356.0
372.0
352.0
331.0
341.0
350.0
335.0
325.0
331.0
341.0
331.0
333.0
335.0
330.0
329.0
341.0
352.0
346.0
324.0
324.0
337.0
356.0
391.0
491.0
595.0
624.0
476.0
231.0
115.0
171.0
315.0
375.0
328.0
293.0
314.0
334.0
329.0
319.0
331.0
343.0
344.0
336.0
339.0
348.0
351.0
347.0
347.0
363.0
359.0
352.0
361.0
371.0
362.0
361.0
371.0
373.0
370.0
379.0
381.0
379.0
379.0
385.0
398.0
400.0
387.0
389.0
396.0
393.0
385.0
391.0
385.0
357.0
357.0
358.0
347.0
325.0
326.0
335.0
334.0
313.0
320.0
339.0
330.0
317.0
330.0
331.0
326.0
321.0
333.0
337.0
332.0
328.0
331.0
328.0
331.0
343.0
352.0
341.0
320.0
329.0
348.0
354.0
333.0
327.0
335.0
348.0
336.0
335.0
344.0
351.0
335.0
328.0
347.0
351.0
334.0
338.0
346.0
339.0
327.0
342.0
353.0
337.0
325.0
334.0
347.0
337.0
333.0
344.0
344.0
330.0
336.0
349.0
352.0
335.0
333.0
336.0
337.0
341.0
347.0
353.0
342.0
332.0
346.0
360.0
363.0
358.0
349.0
341.0
331.0
332.0
337.0
328.0
328.0
334.0
332.0
323.0
323.0
338.0
345.0
338.0
318.0
326.0
346.0
337.0
322.0
344.0
406.0
496.0
594.0
615.0
439.0
182.0
100.0
209.0
340.0
346.0
309.0
299.0
313.0
313.0
329.0
341.0
335.0
318.0
327.0
349.0
347.0
337.0
340.0
355.0
353.0
344.0
352.0
372.0
363.0
347.0
354.0
361.0
373.0
377.0
376.0
372.0
368.0
382.0
394.0
389.0
377.0
382.0
398.0
398.0
379.0
383.0
394.0
386.0
370.0
371.0
372.0
347.0
329.0
340.0
343.0
325.0
322.0
327.0
332.0
321.0
317.0
328.0
338.0
321.0
321.0
333.0
334.0
327.0
338.0
337.0
325.0
325.0
333.0
347.0
345.0
333.0
341.0
351.0
339.0
331.0
339.0
347.0
336.0
335.0
344.0
340.0
326.0
340.0
345.0
349.0
338.0
334.0
340.0
341.0
333.0
333.0
340.0
338.0
332.0
334.0
344.0
335.0
330.0
344.0
350.0
331.0
333.0
343.0
343.0
332.0
339.0
347.0
344.0
329.0
334.0
342.0
345.0
328.0
334.0
354.0
341.0
323.0
336.0
352.0
343.0
331.0
337.0
347.0
340.0
338.0
352.0
360.0
333.0
326.0
345.0
339.0
311.0
319.0
346.0
341.0
321.0
328.0
341.0
328.0
314.0
334.0
347.0
338.0
323.0
333.0
375.0
459.0
571.0
627.0
517.0
263.0
119.0
166.0
291.0
339.0
327.0
309.0
303.0
314.0
337.0
334.0
328.0
323.0
335.0
345.0
334.0
328.0
352.0
354.0
337.0
342.0
360.0
364.0
351.0
349.0
361.0
370.0
359.0
364.0
376.0
377.0
365.0
372.0
387.0
393.0
382.0
385.0
394.0
392.0
380.0
387.0
397.0
387.0
374.0
377.0
370.0
344.0
333.0
343.0
346.0
327.0
323.0
328.0
325.0
313.0
322.0
329.0
325.0
318.0
324.0
338.0
334.0
322.0
329.0
331.0
330.0
331.0
340.0
336.0
324.0
333.0
348.0
348.0
330.0
327.0
331.0
345.0
343.0
337.0
334.0
333.0
336.0
344.0
342.0
332.0
327.0
341.0
339.0
334.0
332.0
335.0
344.0
334.0
329.0
339.0
342.0
324.0
327.0
344.0
347.0
326.0
330.0
342.0
341.0
331.0
341.0
345.0
337.0
327.0
336.0
349.0
342.0
329.0
344.0
354.0
338.0
332.0
346.0
359.0
349.0
343.0
345.0
343.0
327.0
336.0
344.0
330.0
317.0
329.0
342.0
334.0
320.0
338.0
348.0
337.0
327.0
339.0
337.0
325.0
331.0
373.0
458.0
553.0
607.0
535.0
323.0
146.0
148.0
271.0
356.0
335.0
301.0
309.0
331.0
334.0
335.0
336.0
332.0
335.0
345.0
349.0
342.0
343.0
353.0
351.0
347.0
353.0
364.0
361.0
347.0
363.0
381.0
377.0
354.0
359.0
381.0
383.0
376.0
388.0
388.0
386.0
381.0
394.0
397.0
389.0
385.0
392.0
389.0
380.0
378.0
377.0
362.0
332.0
332.0
345.0
348.0
323.0
315.0
326.0
334.0
328.0
328.0
328.0
329.0
328.0
333.0
332.0
328.0
323.0
330.0
340.0
339.0
332.0
338.0
340.0
329.0
340.0
349.0
342.0
329.0
340.0
344.0
343.0
328.0
336.0
350.0
347.0
326.0
332.0
347.0
346.0
335.0
337.0
340.0
338.0
333.0
331.0
343.0
345.0
332.0
339.0
342.0
334.0
339.0
344.0
343.0
330.0
330.0
345.0
347.0
337.0
338.0
344.0
341.0
326.0
339.0
354.0
346.0
330.0
337.0
346.0
341.0
337.0
360.0
364.0
337.0
326.0
340.0
354.0
336.0
320.0
327.0
335.0
330.0
333.0
337.0
330.0
329.0
344.0
347.0
339.0
326.0
330.0
344.0
384.0
463.0
573.0
622.0
485.0
251.0
133.0
182.0
286.0
349.0
337.0
313.0
302.0
323.0
342.0
339.0
325.0
334.0
347.0
347.0
336.0
344.0
348.0
350.0
347.0
349.0
360.0
357.0
353.0
362.0
365.0
357.0
362.0
379.0
381.0
363.0
365.0
384.0
389.0
376.0
386.0
400.0
392.0
377.0
394.0
404.0
386.0
374.0
382.0
383.0
361.0
343.0
352.0
350.0
328.0
323.0
332.0
337.0
323.0
323.0
322.0
326.0
326.0
333.0
331.0
326.0
322.0
331.0
345.0
336.0
326.0
338.0
344.0
334.0
327.0
341.0
351.0
337.0
329.0
338.0
352.0
339.0
335.0
338.0
342.0
333.0
340.0
340.0
342.0
336.0
337.0
342.0
338.0
329.0
344.0
353.0
336.0
328.0
334.0
343.0
339.0
333.0
337.0
341.0
336.0
336.0
337.0
335.0
335.0
344.0
346.0
340.0
324.0
331.0
349.0
350.0
329.0
338.0
345.0
339.0
330.0
344.0
364.0
354.0
338.0
335.0
339.0
338.0
334.0
329.0
328.0
320.0
330.0
332.0
322.0
330.0
341.0
343.0
332.0
324.0
331.0
333.0
336.0
365.0
450.0
558.0
604.0
520.0
312.0
158.0
148.0
256.0
345.0
355.0
311.0
305.0
329.0
334.0
318.0
328.0
344.0
344.0
336.0
343.0
345.0
339.0
342.0
358.0
357.0
346.0
346.0
355.0
371.0
363.0
359.0
366.0
372.0
365.0
365.0
387.0
394.0
372.0
377.0
391.0
393.0
388.0
392.0
392.0
389.0
379.0
392.0
397.0
370.0
349.0
357.0
364.0
344.0
327.0
330.0
328.0
320.0
322.0
329.0
332.0
326.0
334.0
336.0
333.0
321.0
326.0
340.0
335.0
325.0
335.0
345.0
337.0
327.0
340.0
350.0
339.0
332.0
345.0
350.0
336.0
331.0
344.0
352.0
337.0
331.0
341.0
350.0
338.0
339.0
346.0
345.0
331.0
336.0
345.0
340.0
328.0
336.0
344.0
340.0
333.0
338.0
343.0
337.0
337.0
343.0
341.0
332.0
335.0
340.0
345.0
335.0
337.0
340.0
346.0
343.0
345.0
366.0
364.0
348.0
339.0
337.0
331.0
328.0
336.0
339.0
322.0
322.0
330.0
332.0
324.0
328.0
338.0
343.0
331.0
326.0
328.0
333.0
344.0
401.0
515.0
601.0
582.0
412.0
203.0
121.0
204.0
334.0
362.0
311.0
292.0
324.0
351.0
323.0
324.0
342.0
350.0
336.0
338.0
346.0
346.0
346.0
354.0
355.0
342.0
338.0
360.0
371.0
360.0
345.0
361.0
375.0
371.0
358.0
369.0
383.0
378.0
376.0
388.0
389.0
378.0
386.0
402.0
401.0
376.0
380.0
384.0
382.0
373.0
363.0
353.0
344.0
334.0
336.0
336.0
325.0
318.0
336.0
338.0
316.0
317.0
338.0
343.0
319.0
319.0
333.0
328.0
326.0
336.0
344.0
335.0
323.0
336.0
345.0
337.0
330.0
339.0
344.0
338.0
334.0
336.0
347.0
337.0
333.0
342.0
348.0
339.0
338.0
338.0
345.0
336.0
337.0
339.0
348.0
341.0
338.0
338.0
341.0
337.0
343.0
342.0
332.0
332.0
346.0
347.0
342.0
347.0
353.0
353.0
345.0
354.0
373.0
366.0
328.0
322.0
350.0
353.0
328.0
318.0
332.0
333.0
326.0
340.0
338.0
338.0
328.0
332.0
351.0
341.0
322.0
330.0
368.0
428.0
539.0
614.0
543.0
307.0
133.0
146.0
277.0
351.0
338.0
305.0
305.0
319.0
334.0
337.0
328.0
318.0
337.0
352.0
347.0
336.0
342.0
351.0
350.0
344.0
356.0
362.0
348.0
352.0
374.0
372.0
355.0
359.0
376.0
379.0
363.0
374.0
390.0
389.0
372.0
382.0
402.0
395.0
378.0
388.0
401.0
392.0
378.0
372.0
367.0
348.0
345.0
344.0
334.0
320.0
322.0
334.0
334.0
315.0
327.0
330.0
326.0
321.0
321.0
335.0
342.0
323.0
320.0
330.0
334.0
335.0
336.0
332.0
330.0
335.0
339.0
339.0
331.0
334.0
340.0
344.0
326.0
333.0
343.0
342.0
322.0
327.0
346.0
348.0
328.0
334.0
345.0
339.0
329.0
338.0
339.0
322.0
332.0
342.0
349.0
331.0
336.0
349.0
350.0
334.0
337.0
360.0
370.0
346.0
328.0
329.0
330.0
330.0
336.0
330.0
323.0
313.0
325.0
333.0
321.0
319.0
330.0
341.0
331.0
325.0
325.0
329.0
342.0
414.0
531.0
602.0
555.0
359.0
174.0
138.0
217.0
328.0
358.0
318.0
287.0
310.0
323.0
325.0
320.0
333.0
339.0
318.0
316.0
345.0
361.0
344.0
330.0
341.0
358.0
342.0
344.0
367.0
368.0
340.0
347.0
370.0
381.0
364.0
366.0
376.0
373.0
374.0
393.0
392.0
370.0
379.0
400.0
398.0
368.0
373.0
395.0
388.0
351.0
341.0
345.0
341.0
325.0
325.0
330.0
322.0
313.0
321.0
335.0
330.0
311.0
320.0
343.0
329.0
310.0
325.0
338.0
319.0
318.0
336.0
338.0
323.0
325.0
340.0
346.0
330.0
331.0
338.0
345.0
333.0
330.0
333.0
335.0
334.0
342.0
338.0
327.0
336.0
343.0
340.0
330.0
332.0
345.0
341.0
327.0
326.0
339.0
347.0
327.0
338.0
350.0
351.0
332.0
339.0
368.0
368.0
341.0
329.0
333.0
328.0
325.0
329.0
329.0
322.0
322.0
328.0
329.0
321.0
324.0
335.0
337.0
319.0
323.0
337.0
338.0
344.0
407.0
537.0
625.0
553.0
339.0
163.0
139.0
233.0
338.0
351.0
307.0
294.0
319.0
338.0
318.0
316.0
335.0
345.0
333.0
333.0
340.0
352.0
346.0
340.0
346.0
357.0
351.0
350.0
358.0
364.0
357.0
363.0
371.0
365.0
358.0
377.0
389.0
378.0
370.0
384.0
398.0
379.0
376.0
390.0
393.0
377.0
382.0
392.0
377.0
351.0
350.0
353.0
341.0
316.0
327.0
337.0
324.0
316.0
333.0
337.0
318.0
311.0
327.0
339.0
329.0
323.0
328.0
335.0
320.0
329.0
348.0
346.0
328.0
330.0
345.0
341.0
328.0
341.0
347.0
330.0
321.0
346.0
355.0
334.0
329.0
344.0
343.0
334.0
331.0
341.0
344.0
328.0
331.0
336.0
342.0
334.0
335.0
335.0
340.0
331.0
336.0
349.0
347.0
336.0
341.0
354.0
352.0
350.0
353.0
349.0
334.0
328.0
336.0
334.0
321.0
330.0
334.0
335.0
319.0
327.0
337.0
342.0
330.0
330.0
340.0
341.0
319.0
332.0
394.0
483.0
567.0
592.0
485.0
264.0
128.0
170.0
298.0
348.0
326.0
305.0
318.0
324.0
327.0
329.0
336.0
331.0
337.0
343.0
346.0
340.0
350.0
352.0
341.0
341.0
356.0
360.0
357.0
356.0
368.0
372.0
366.0
366.0
370.0
376.0
372.0
379.0
387.0
389.0
378.0
382.0
400.0
404.0
380.0
381.0
394.0
393.0
369.0
365.0
369.0
354.0
336.0
335.0
341.0
328.0
331.0
335.0
331.0
317.0
323.0
337.0
335.0
321.0
323.0
338.0
339.0
324.0
332.0
346.0
339.0
332.0
343.0
347.0
332.0
327.0
349.0
357.0
333.0
324.0
341.0
360.0
344.0
333.0
342.0
351.0
340.0
336.0
338.0
347.0
338.0
334.0
340.0
334.0
334.0
345.0
347.0
340.0
326.0
340.0
350.0
336.0
332.0
342.0
351.0
339.0
332.0
353.0
360.0
344.0
356.0
365.0
352.0
330.0
330.0
344.0
337.0
315.0
327.0
338.0
325.0
324.0
340.0
343.0
328.0
322.0
332.0
345.0
336.0
324.0
333.0
363.0
412.0
518.0
617.0
585.0
353.0
152.0
130.0
246.0
336.0
347.0
315.0
303.0
310.0
334.0
337.0
323.0
320.0
332.0
341.0
338.0
339.0
349.0
353.0
342.0
342.0
358.0
358.0
349.0
349.0
366.0
369.0
359.0
361.0
372.0
383.0
374.0
373.0
382.0
381.0
381.0
395.0
399.0
377.0
377.0
399.0
406.0
375.0
359.0
377.0
378.0
346.0
336.0
344.0
341.0
321.0
324.0
329.0
334.0
325.0
323.0
329.0
331.0
328.0
331.0
336.0
329.0
324.0
336.0
339.0
331.0
331.0
346.0
344.0
334.0
333.0
344.0
348.0
338.0
337.0
337.0
339.0
340.0
349.0
350.0
344.0
332.0
349.0
348.0
333.0
333.0
349.0
349.0
331.0
332.0
338.0
340.0
337.0
345.0
349.0
345.0
327.0
334.0
351.0
343.0
326.0
337.0
352.0
345.0
330.0
343.0
358.0
352.0
339.0
355.0
371.0
355.0
334.0
333.0
338.0
336.0
328.0
321.0
335.0
330.0
325.0
333.0
328.0
326.0
335.0
349.0
337.0
323.0
335.0
342.0
339.0
352.0
438.0
562.0
609.0
527.0
318.0
151.0
141.0
261.0
353.0
347.0
297.0
298.0
325.0
337.0
315.0
318.0
338.0
341.0
325.0
327.0
352.0
355.0
331.0
346.0
363.0
350.0
345.0
358.0
365.0
352.0
347.0
359.0
380.0
371.0
367.0
374.0
380.0
369.0
383.0
392.0
384.0
373.0
385.0
398.0
392.0
371.0
377.0
390.0
365.0
343.0
362.0
365.0
343.0
323.0
320.0
330.0
327.0
323.0
326.0
331.0
322.0
328.0
327.0
334.0
321.0
333.0
346.0
343.0
331.0
332.0
331.0
332.0
350.0
347.0
332.0
335.0
341.0
333.0
350.0
345.0
342.0
350.0
345.0
322.0
321.0
354.0
370.0
341.0
327.0
338.0
338.0
329.0
344.0
365.0
342.0
318.0
343.0
355.0
357.0
333.0
340.0
341.0
354.0
352.0
340.0
345.0
359.0
349.0
350.0
350.0
329.0
350.0
388.0
384.0
349.0
339.0
333.0
345.0
335.0
337.0
341.0
330.0
321.0
340.0
364.0
338.0
322.0
335.0
350.0
332.0
344.0
346.0
345.0
357.0
403.0
519.0
644.0
580.0
360.0
192.0
152.0
220.0
338.0
373.0
333.0
297.0
309.0
351.0
351.0
323.0
327.0
348.0
348.0
341.0
354.0
367.0
356.0
340.0
349.0
370.0
364.0
352.0
367.0
389.0
358.0
355.0
378.0
386.0
371.0
372.0
386.0
381.0
371.0
405.0
422.0
381.0
354.0
379.0
425.0
408.0
362.0
364.0
385.0
367.0
356.0
376.0
356.0
308.0
314.0
350.0
352.0
322.0
320.0
337.0
341.0
317.0
325.0
348.0
341.0
325.0
326.0
344.0
331.0
330.0
347.0
341.0
317.0
337.0
364.0
341.0
327.0
338.0
353.0
359.0
328.0
327.0
355.0
354.0
326.0
329.0
356.0
343.0
316.0
353.0
367.0
331.0
315.0
340.0
353.0
338.0
337.0
347.0
349.0
330.0
339.0
355.0
349.0
316.0
331.0
362.0
358.0
336.0
336.0
349.0
352.0
342.0
357.0
378.0
364.0
342.0
330.0
342.0
342.0
326.0
322.0
338.0
340.0
328.0
334.0
340.0
322.0
323.0
343.0
338.0
317.0
342.0
354.0
338.0
336.0
420.0
568.0
622.0
516.0
321.0
191.0
160.0
233.0
318.0
357.0
329.0
303.0
312.0
329.0
330.0
342.0
342.0
326.0
326.0
345.0
357.0
347.0
333.0
349.0
353.0
356.0
350.0
348.0
363.0
367.0
349.0
361.0
375.0
372.0
364.0
379.0
387.0
368.0
370.0
395.0
403.0
371.0
372.0
398.0
392.0
371.0
378.0
392.0
368.0
342.0
357.0
368.0
341.0
318.0
320.0
344.0
330.0
309.0
322.0
335.0
313.0
319.0
341.0
337.0
313.0
325.0
339.0
336.0
322.0
329.0
343.0
334.0
314.0
337.0
359.0
340.0
316.0
335.0
364.0
349.0
321.0
328.0
337.0
327.0
330.0
348.0
356.0
333.0
325.0
345.0
355.0
330.0
332.0
343.0
345.0
327.0
322.0
337.0
345.0
335.0
325.0
329.0
341.0
349.0
343.0
343.0
334.0
339.0
347.0
349.0
323.0
330.0
369.0
375.0
334.0
322.0
338.0
345.0
329.0
323.0
343.0
343.0
304.0
320.0
345.0
328.0
313.0
326.0
340.0
324.0
329.0
339.0
339.0
308.0
336.0
414.0
503.0
564.0
580.0
459.0
252.0
128.0
182.0
299.0
335.0
304.0
297.0
328.0
336.0
319.0
323.0
345.0
331.0
323.0
329.0
341.0
337.0
340.0
352.0
353.0
328.0
332.0
363.0
388.0
352.0
329.0
346.0
361.0
354.0
366.0
400.0
377.0
338.0
368.0
414.0
391.0
356.0
383.0
410.0
375.0
354.0
382.0
406.0
365.0
336.0
355.0
369.0
322.0
312.0
339.0
345.0
315.0
317.0
330.0
320.0
301.0
320.0
348.0
330.0
301.0
317.0
345.0
322.0
302.0
320.0
347.0
331.0
307.0
337.0
362.0
332.0
303.0
335.0
362.0
330.0
318.0
343.0
335.0
321.0
340.0
352.0
337.0
322.0
338.0
342.0
335.0
337.0
345.0
340.0
320.0
321.0
344.0
355.0
329.0
310.0
330.0
348.0
337.0
332.0
347.0
347.0
357.0
357.0
346.0
338.0
313.0
328.0
351.0
325.0
300.0
326.0
351.0
328.0
303.0
316.0
357.0
337.0
304.0
331.0
359.0
315.0
304.0
345.0
359.0
364.0
449.0
590.0
645.0
468.0
226.0
136.0
188.0
278.0
327.0
337.0
301.0
286.0
333.0
354.0
305.0
290.0
329.0
344.0
332.0
333.0
345.0
349.0
318.0
328.0
376.0
367.0
335.0
328.0
370.0
363.0
330.0
358.0
388.0
367.0
355.0
374.0
398.0
367.0
350.0
392.0
417.0
381.0
357.0
386.0
414.0
383.0
365.0
385.0
387.0
349.0
341.0
347.0
336.0
319.0
332.0
350.0
327.0
312.0
338.0
355.0
332.0
310.0
335.0
344.0
331.0
328.0
339.0
343.0
334.0
344.0
349.0
344.0
331.0
333.0
356.0
366.0
343.0
345.0
348.0
323.0
327.0
348.0
360.0
342.0
322.0
352.0
366.0
324.0
335.0
359.0
348.0
334.0
355.0
349.0
320.0
312.0
347.0
363.0
346.0
336.0
335.0
355.0
358.0
333.0
329.0
353.0
348.0
323.0
337.0
357.0
342.0
330.0
347.0
359.0
332.0
331.0
363.0
366.0
320.0
324.0
370.0
354.0
330.0
344.0
375.0
373.0
343.0
338.0
350.0
345.0
337.0
341.0
355.0
336.0
311.0
332.0
358.0
345.0
337.0
329.0
335.0
330.0
338.0
360.0
343.0
313.0
327.0
407.0
510.0
563.0
592.0
527.0
288.0
101.0
154.0
327.0
378.0
316.0
292.0
319.0
341.0
332.0
331.0
336.0
324.0
332.0
357.0
370.0
337.0
338.0
364.0
366.0
332.0
345.0
378.0
365.0
331.0
355.0
398.0
369.0
350.0
377.0
400.0
370.0
346.0
387.0
425.0
388.0
362.0
400.0
409.0
363.0
374.0
414.0
414.0
354.0
337.0
382.0
371.0
321.0
322.0
365.0
346.0
308.0
328.0
361.0
313.0
287.0
339.0
359.0
313.0
305.0
343.0
362.0
314.0
301.0
337.0
352.0
324.0
322.0
357.0
350.0
327.0
342.0
351.0
332.0
319.0
348.0
366.0
329.0
311.0
346.0
373.0
344.0
322.0
337.0
356.0
332.0
324.0
351.0
361.0
328.0
323.0
360.0
351.0
310.0
324.0
363.0
352.0
320.0
340.0
364.0
337.0
306.0
334.0
365.0
329.0
298.0
336.0
374.0
327.0
308.0
343.0
370.0
324.0
318.0
356.0
346.0
321.0
328.0
355.0
375.0
335.0
336.0
364.0
361.0
335.0
332.0
369.0
356.0
324.0
338.0
349.0
324.0
320.0
353.0
371.0
341.0
320.0
361.0
359.0
311.0
310.0
360.0
373.0
333.0
355.0
486.0
606.0
593.0
513.0
341.0
165.0
154.0
267.0
348.0
323.0
309.0
346.0
374.0
325.0
287.0
326.0
365.0
344.0
340.0
359.0
349.0
337.0
353.0
379.0
351.0
336.0
372.0
383.0
359.0
344.0
371.0
392.0
349.0
351.0
405.0
429.0
359.0
338.0
396.0
440.0
394.0
350.0
385.0
420.0
380.0
384.0
422.0
391.0
343.0
362.0
399.0
364.0
317.0
328.0
359.0
338.0
322.0
335.0
335.0
316.0
327.0
355.0
356.0
316.0
306.0
352.0
378.0
329.0
301.0
340.0
362.0
329.0
325.0
358.0
361.0
329.0
331.0
362.0
348.0
313.0
341.0
369.0
337.0
322.0
357.0
371.0
327.0
320.0
361.0
370.0
325.0
317.0
360.0
375.0
321.0
315.0
360.0
365.0
328.0
324.0
352.0
339.0
320.0
356.0
382.0
348.0
313.0
334.0
363.0
328.0
318.0
358.0
376.0
320.0
304.0
355.0
369.0
321.0
318.0
373.0
357.0
301.0
332.0
383.0
358.0
308.0
329.0
373.0
331.0
299.0
323.0
357.0
327.0
311.0
340.0
354.0
316.0
320.0
357.0
353.0
311.0
320.0
352.0
351.0
364.0
484.0
618.0
620.0
465.0
267.0
166.0
177.0
277.0
364.0
356.0
288.0
280.0
333.0
357.0
311.0
303.0
349.0
354.0
323.0
320.0
354.0
355.0
340.0
343.0
362.0
347.0
329.0
360.0
383.0
348.0
336.0
374.0
390.0
353.0
345.0
384.0
404.0
364.0
352.0
397.0
423.0
371.0
349.0
408.0
416.0
361.0
347.0
394.0
385.0
334.0
334.0
363.0
352.0
309.0
311.0
353.0
330.0
304.0
346.0
369.0
298.0
282.0
322.0
351.0
321.0
313.0
339.0
339.0
309.0
321.0
354.0
347.0
305.0
322.0
371.0
345.0
304.0
321.0
361.0
342.0
321.0
340.0
358.0
318.0
309.0
354.0
365.0
314.0
306.0
354.0
363.0
312.0
308.0
350.0
349.0
319.0
328.0
355.0
333.0
307.0
328.0
354.0
327.0
310.0
340.0
359.0
323.0
312.0
341.0
368.0
321.0
297.0
342.0
370.0
326.0
306.0
339.0
346.0
316.0
321.0
348.0
348.0
331.0
347.0
358.0
324.0
301.0
340.0
371.0
319.0
287.0
332.0
350.0
306.0
299.0
337.0
352.0
313.0
312.0
353.0
349.0
285.0
309.0
380.0
403.0
442.0
578.0
661.0
468.0
173.0
99.0
197.0
300.0
308.0
309.0
325.0
313.0
300.0
326.0
357.0
327.0
292.0
333.0
365.0
324.0
315.0
354.0
366.0
330.0
330.0
362.0
364.0
325.0
334.0
383.0
375.0
339.0
343.0
381.0
369.0
346.0
382.0
408.0
368.0
354.0
399.0
414.0
362.0
356.0
413.0
423.0
362.0
344.0
382.0
383.0
328.0
322.0
364.0
351.0
290.0
300.0
355.0
340.0
294.0
319.0
356.0
331.0
305.0
325.0
346.0
315.0
312.0
360.0
370.0
301.0
290.0
356.0
371.0
318.0
310.0
355.0
363.0
331.0
336.0
379.0
354.0
312.0
344.0
393.0
356.0
286.0
303.0
349.0
337.0
318.0
354.0
373.0
325.0
304.0
339.0
366.0
331.0
320.0
352.0
345.0
305.0
324.0
364.0
348.0
305.0
336.0
374.0
340.0
305.0
331.0
372.0
342.0
296.0
338.0
402.0
354.0
294.0
320.0
361.0
326.0
310.0
331.0
340.0
317.0
327.0
353.0
332.0
300.0
333.0
376.0
334.0
295.0
333.0
367.0
328.0
322.0
439.0
613.0
633.0
496.0
306.0
187.0
158.0
235.0
335.0
352.0
300.0
296.0
345.0
345.0
301.0
311.0
361.0
364.0
312.0
315.0
357.0
355.0
321.0
341.0
372.0
348.0
327.0
364.0
372.0
331.0
330.0
384.0
403.0
342.0
330.0
390.0
402.0
351.0
361.0
410.0
393.0
351.0
385.0
432.0
386.0
343.0
373.0
414.0
373.0
330.0
357.0
371.0
324.0
304.0
345.0
355.0
307.0
304.0
348.0
346.0
296.0
301.0
349.0
343.0
297.0
312.0
353.0
340.0
309.0
333.0
354.0
318.0
306.0
348.0
367.0
320.0
300.0
345.0
366.0
320.0
308.0
355.0
364.0
317.0
317.0
357.0
350.0
314.0
326.0
363.0
342.0
305.0
331.0
373.0
342.0
310.0
336.0
368.0
326.0
306.0
341.0
362.0
327.0
311.0
355.0
363.0
312.0
314.0
369.0
357.0
301.0
317.0
367.0
355.0
314.0
328.0
367.0
355.0
318.0
339.0
381.0
344.0
309.0
332.0
357.0
325.0
307.0
339.0
354.0
318.0
309.0
344.0
348.0
311.0
327.0
366.0
349.0
304.0
322.0
363.0
362.0
376.0
508.0
647.0
618.0
393.0
196.0
159.0
208.0
291.0
352.0
337.0
288.0
295.0
345.0
348.0
304.0
317.0
362.0
351.0
309.0
332.0
381.0
359.0
305.0
326.0
376.0
357.0
325.0
353.0
387.0
354.0
336.0
373.0
396.0
354.0
350.0
397.0
396.0
351.0
368.0
421.0
406.0
347.0
370.0
432.0
411.0
345.0
369.0
420.0
385.0
328.0
342.0
376.0
337.0
303.0
338.0
360.0
314.0
294.0
341.0
365.0
315.0
304.0
345.0
352.0
313.0
323.0
361.0
346.0
306.0
325.0
360.0
347.0
311.0
334.0
368.0
342.0
316.0
343.0
370.0
329.0
314.0
358.0
377.0
335.0
310.0
346.0
368.0
332.0
327.0
361.0
357.0
320.0
324.0
364.0
355.0
317.0
331.0
364.0
347.0
321.0
337.0
364.0
335.0
312.0
343.0
366.0
342.0
326.0
353.0
358.0
321.0
328.0
372.0
367.0
322.0
326.0
387.0
389.0
320.0
315.0
354.0
345.0
315.0
331.0
355.0
322.0
305.0
334.0
352.0
319.0
315.0
357.0
361.0
307.0
308.0
358.0
352.0
318.0
382.0
538.0
612.0
559.0
438.0
272.0
143.0
149.0
300.0
405.0
332.0
261.0
300.0
356.0
328.0
302.0
340.0
366.0
324.0
313.0
357.0
366.0
320.0
333.0
385.0
368.0
318.0
337.0
387.0
371.0
332.0
351.0
395.0
373.0
341.0
371.0
408.0
366.0
347.0
397.0
420.0
365.0
362.0
414.0
427.0
362.0
347.0
406.0
405.0
349.0
339.0
376.0
365.0
311.0
321.0
359.0
331.0
300.0
328.0
359.0
323.0
298.0
335.0
367.0
316.0
295.0
343.0
361.0
320.0
313.0
358.0
357.0
308.0
322.0
376.0
359.0
300.0
313.0
369.0
353.0
312.0
324.0
356.0
337.0
325.0
354.0
368.0
333.0
320.0
352.0
359.0
320.0
325.0
362.0
364.0
316.0
320.0
366.0
356.0
317.0
327.0
371.0
352.0
312.0
335.0
367.0
341.0
312.0
337.0
379.0
335.0
313.0
351.0
376.0
332.0
334.0
384.0
378.0
313.0
303.0
355.0
365.0
308.0
301.0
346.0
342.0
311.0
331.0
358.0
329.0
304.0
341.0
365.0
319.0
292.0
330.0
376.0
374.0
445.0
602.0
658.0
480.0
216.0
122.0
187.0
284.0
345.0
351.0
312.0
282.0
330.0
359.0
323.0
296.0
334.0
368.0
334.0
307.0
352.0
387.0
335.0
313.0
363.0
388.0
338.0
332.0
383.0
387.0
330.0
333.0
398.0
403.0
335.0
346.0
416.0
409.0
349.0
370.0
421.0
400.0
365.0
384.0
421.0
387.0
359.0
395.0
417.0
352.0
320.0
358.0
368.0
324.0
318.0
356.0
343.0
297.0
321.0
370.0
341.0
289.0
308.0
365.0
347.0
308.0
328.0
365.0
341.0
315.0
337.0
367.0
341.0
324.0
353.0
364.0
316.0
316.0
368.0
370.0
321.0
327.0
367.0
354.0
323.0
330.0
361.0
345.0
323.0
351.0
369.0
328.0
311.0
352.0
373.0
326.0
318.0
351.0
356.0
322.0
324.0
365.0
370.0
323.0
316.0
356.0
364.0
335.0
341.0
368.0
353.0
342.0
364.0
383.0
336.0
306.0
351.0
382.0
329.0
284.0
332.0
371.0
333.0
305.0
338.0
368.0
333.0
312.0
342.0
357.0
323.0
312.0
375.0
439.0
510.0
608.0
615.0
369.0
102.0
90.0
236.0
365.0
332.0
293.0
317.0
314.0
296.0
323.0
357.0
326.0
301.0
338.0
363.0
336.0
322.0
355.0
370.0
334.0
326.0
371.0
371.0
332.0
340.0
398.0
395.0
334.0
341.0
406.0
405.0
344.0
358.0
408.0
394.0
363.0
388.0
408.0
375.0
365.0
417.0
428.0
359.0
335.0
380.0
396.0
349.0
326.0
350.0
344.0
309.0
309.0
339.0
332.0
303.0
326.0
354.0
321.0
290.0
322.0
353.0
327.0
300.0
337.0
358.0
326.0
315.0
345.0
357.0
328.0
335.0
371.0
342.0
287.0
305.0
369.0
357.0
302.0
318.0
370.0
362.0
318.0
324.0
366.0
357.0
309.0
325.0
355.0
337.0
314.0
343.0
362.0
327.0
312.0
354.0
361.0
323.0
326.0
377.0
360.0
328.0
344.0
378.0
372.0
335.0
357.0
370.0
334.0
315.0
353.0
380.0
308.0
270.0
333.0
382.0
340.0
305.0
332.0
352.0
332.0
331.0
353.0
333.0
317.0
375.0
491.0
567.0
580.0
519.0
336.0
166.0
144.0
275.0
379.0
340.0
280.0
306.0
357.0
337.0
311.0
346.0
371.0
332.0
318.0
356.0
368.0
338.0
332.0
369.0
366.0
338.0
357.0
386.0
366.0
335.0
367.0
401.0
370.0
341.0
379.0
416.0
388.0
345.0
379.0
426.0
396.0
362.0
400.0
409.0
366.0
372.0
392.0
405.0
337.0
366.0
416.0
346.0
284.0
333.0
338.0
331.0
318.0
381.0
344.0
252.0
285.0
373.0
396.0
354.0
297.0
331.0
376.0
326.0
281.0
367.0
379.0
319.0
324.0
350.0
340.0
308.0
316.0
367.0
347.0
291.0
309.0
373.0
367.0
332.0
334.0
370.0
346.0
315.0
338.0
376.0
337.0
311.0
342.0
344.0
314.0
337.0
401.0
397.0
307.0
328.0
385.0
391.0
344.0
327.0
364.0
369.0
317.0
300.0
343.0
350.0
342.0
329.0
323.0
341.0
347.0
346.0
359.0
350.0
324.0
330.0
349.0
360.0
376.0
450.0
585.0
628.0
478.0
262.0
160.0
176.0
270.0
356.0
370.0
329.0
293.0
278.0
300.0
317.0
333.0
320.0
262.0
230.0
272.0
318.0
350.0
390.0
385.0
318.0
292.0
367.0
468.0
352.0
225.0
339.0
531.0
444.0
263.0
260.0
395.0
474.0
387.0
315.0
379.0
409.0
383.0
372.0
381.0
396.0
398.0
389.0
364.0
357.0
378.0
377.0
337.0
315.0
346.0
365.0
339.0
310.0
341.0
376.0
310.0
305.0
355.0
351.0
320.0
310.0
315.0
365.0
362.0
343.0
351.0
347.0
348.0
332.0
326.0
342.0
337.0
362.0
333.0
290.0
337.0
382.0
353.0
324.0
336.0
376.0
382.0
326.0
291.0
346.0
350.0
288.0
303.0
379.0
380.0
321.0
323.0
356.0
356.0
342.0
355.0
376.0
355.0
307.0
318.0
337.0
298.0
275.0
323.0
369.0
335.0
278.0
313.0
373.0
333.0
278.0
313.0
355.0
321.0
306.0
358.0
422.0
489.0
578.0
580.0
338.0
118.0
122.0
282.0
358.0
287.0
268.0
317.0
330.0
301.0
312.0
324.0
307.0
317.0
354.0
334.0
317.0
351.0
354.0
322.0
300.0
327.0
368.0
382.0
349.0
336.0
343.0
352.0
367.0
378.0
385.0
316.0
311.0
391.0
413.0
376.0
348.0
344.0
394.0
420.0
408.0
379.0
353.0
332.0
360.0
381.0
309.0
289.0
336.0
346.0
303.0
295.0
342.0
388.0
330.0
253.0
289.0
344.0
304.0
238.0
258.0
342.0
344.0
363.0
352.0
303.0
296.0
337.0
382.0
357.0
345.0
311.0
347.0
389.0
349.0
289.0
327.0
359.0
315.0
283.0
309.0
354.0
336.0
323.0
350.0
327.0
299.0
321.0
266.0
281.0
300.0
332.0
322.0
321.0
426.0
461.0
352.0
238.0
262.0
345.0
341.0
292.0
311.0
332.0
310.0
337.0
374.0
356.0
310.0
315.0
360.0
361.0
378.0
340.0
432.0
578.0
641.0
409.0
122.0
77.0
211.0
336.0
342.0
319.0
294.0
282.0
243.0
306.0
376.0
399.0
368.0
247.0
250.0
346.0
425.0
346.0
287.0
338.0
367.0
350.0
349.0
403.0
388.0
370.0
352.0
323.0
355.0
358.0
389.0
409.0
365.0
345.0
381.0
425.0
348.0
331.0
385.0
416.0
423.0
391.0
366.0
358.0
364.0
360.0
369.0
365.0
327.0
318.0
350.0
357.0
309.0
310.0
351.0
352.0
331.0
343.0
342.0
322.0
328.0
346.0
377.0
360.0
324.0
331.0
344.0
355.0
385.0
364.0
323.0
305.0
349.0
393.0
336.0
288.0
328.0
382.0
362.0
330.0
337.0
356.0
335.0
308.0
352.0
394.0
364.0
341.0
368.0
385.0
343.0
326.0
350.0
357.0
321.0
309.0
332.0
345.0
336.0
325.0
351.0
357.0
319.0
319.0
345.0
345.0
314.0
328.0
356.0
380.0
478.0
609.0
611.0
380.0
165.0
168.0
262.0
312.0
322.0
332.0
312.0
274.0
303.0
367.0
358.0
304.0
312.0
366.0
365.0
320.0
336.0
366.0
318.0
320.0
378.0
402.0
347.0
305.0
372.0
414.0
343.0
316.0
402.0
426.0
348.0
327.0
372.0
391.0
364.0
385.0
411.0
388.0
375.0
396.0
386.0
370.0
381.0
406.0
397.0
325.0
283.0
351.0
395.0
323.0
281.0
337.0
374.0
345.0
304.0
322.0
342.0
324.0
320.0
357.0
345.0
315.0
323.0
358.0
341.0
320.0
344.0
357.0
335.0
325.0
346.0
378.0
335.0
313.0
353.0
369.0
327.0
325.0
391.0
374.0
309.0
330.0
392.0
365.0
309.0
350.0
405.0
372.0
317.0
335.0
370.0
325.0
294.0
345.0
374.0
315.0
279.0
335.0
371.0
332.0
310.0
339.0
359.0
335.0
324.0
344.0
365.0
417.0
542.0
651.0
576.0
299.0
114.0
146.0
260.0
341.0
358.0
317.0
274.0
286.0
359.0
373.0
323.0
297.0
349.0
375.0
320.0
292.0
355.0
392.0
339.0
325.0
372.0
361.0
346.0
371.0
388.0
355.0
329.0
369.0
415.0
375.0
325.0
368.0
415.0
387.0
353.0
397.0
412.0
360.0
362.0
399.0
394.0
372.0
370.0
387.0
379.0
327.0
322.0
366.0
352.0
312.0
329.0
355.0
336.0
304.0
356.0
354.0
303.0
303.0
357.0
360.0
326.0
320.0
370.0
365.0
324.0
333.0
376.0
364.0
321.0
328.0
361.0
360.0
322.0
336.0
371.0
342.0
330.0
366.0
371.0
344.0
324.0
363.0
398.0
353.0
316.0
380.0
388.0
318.0
303.0
359.0
360.0
315.0
319.0
358.0
343.0
319.0
344.0
356.0
344.0
325.0
354.0
381.0
329.0
293.0
365.0
456.0
504.0
580.0
634.0
462.0
190.0
101.0
228.0
330.0
324.0
309.0
326.0
345.0
325.0
313.0
326.0
346.0
336.0
349.0
381.0
337.0
307.0
358.0
395.0
347.0
310.0
356.0
368.0
322.0
346.0
415.0
395.0
325.0
341.0
400.0
361.0
321.0
377.0
423.0
358.0
286.0
373.0
492.0
405.0
290.0
287.0
368.0
402.0
330.0
361.0
410.0
358.0
323.0
334.0
350.0
347.0
321.0
347.0
375.0
327.0
308.0
350.0
353.0
314.0
304.0
372.0
363.0
331.0
333.0
372.0
335.0
327.0
368.0
390.0
321.0
283.0
356.0
412.0
322.0
283.0
368.0
407.0
335.0
290.0
353.0
393.0
356.0
323.0
316.0
372.0
413.0
382.0
332.0
325.0
330.0
353.0
365.0
321.0
297.0
320.0
344.0
304.0
289.0
359.0
357.0
339.0
347.0
362.0
298.0
305.0
388.0
458.0
530.0
598.0
607.0
414.0
158.0
90.0
187.0
354.0
357.0
297.0
278.0
302.0
324.0
356.0
352.0
340.0
346.0
330.0
323.0
339.0
330.0
335.0
390.0
403.0
331.0
304.0
383.0
393.0
349.0
340.0
359.0
366.0
348.0
392.0
415.0
372.0
325.0
377.0
447.0
386.0
336.0
398.0
435.0
368.0
334.0
384.0
398.0
349.0
343.0
393.0
349.0
308.0
333.0
360.0
344.0
304.0
328.0
343.0
317.0
321.0
346.0
369.0
336.0
305.0
347.0
359.0
326.0
329.0
360.0
355.0
330.0
326.0
348.0
351.0
318.0
351.0
386.0
340.0
288.0
327.0
382.0
365.0
318.0
333.0
386.0
357.0
322.0
327.0
360.0
362.0
343.0
363.0
354.0
307.0
339.0
394.0
366.0
294.0
301.0
348.0
346.0
325.0
336.0
342.0
307.0
311.0
361.0
356.0
304.0
304.0
351.0
358.0
353.0
420.0
585.0
648.0
525.0
286.0
170.0
169.0
220.0
326.0
395.0
317.0
257.0
302.0
348.0
339.0
311.0
320.0
324.0
306.0
315.0
365.0
384.0
321.0
317.0
359.0
371.0
327.0
327.0
373.0
369.0
337.0
355.0
368.0
368.0
361.0
367.0
410.0
389.0
337.0
350.0
417.0
391.0
347.0
379.0
422.0
376.0
343.0
348.0
378.0
371.0
327.0
328.0
337.0
316.0
315.0
341.0
334.0
298.0
306.0
331.0
315.0
296.0
336.0
370.0
333.0
287.0
313.0
356.0
329.0
306.0
337.0
351.0
313.0
282.0
329.0
372.0
327.0
297.0
328.0
333.0
311.0
316.0
361.0
345.0
295.0
283.0
343.0
370.0
321.0
317.0
346.0
320.0
298.0
361.0
375.0
311.0
310.0
373.0
371.0
296.0
288.0
332.0
336.0
290.0
296.0
342.0
344.0
294.0
284.0
338.0
351.0
302.0
297.0
320.0
330.0
308.0
329.0
359.0
409.0
539.0
652.0
562.0
267.0
86.0
121.0
272.0
326.0
297.0
303.0
311.0
284.0
288.0
341.0
342.0
301.0
302.0
348.0
341.0
305.0
316.0
372.0
360.0
308.0
331.0
363.0
317.0
315.0
374.0
397.0
314.0
304.0
384.0
416.0
356.0
321.0
366.0
388.0
365.0
364.0
403.0
381.0
343.0
375.0
423.0
387.0
337.0
342.0
365.0
334.0
317.0
346.0
353.0
300.0
276.0
344.0
378.0
316.0
281.0
316.0
352.0
318.0
313.0
353.0
337.0
297.0
318.0
368.0
339.0
289.0
322.0
375.0
345.0
300.0
318.0
353.0
332.0
311.0
342.0
363.0
320.0
299.0
353.0
369.0
308.0
313.0
356.0
357.0
333.0
344.0
371.0
346.0
322.0
346.0
356.0
344.0
318.0
307.0
344.0
351.0
311.0
322.0
347.0
330.0
315.0
336.0
346.0
335.0
327.0
349.0
336.0
314.0
333.0
449.0
540.0
559.0
579.0
457.0
204.0
85.0
168.0
342.0
356.0
288.0
292.0
318.0
335.0
311.0
329.0
351.0
314.0
289.0
367.0
390.0
324.0
294.0
344.0
385.0
340.0
327.0
374.0
367.0
330.0
348.0
399.0
376.0
311.0
341.0
421.0
405.0
332.0
350.0
397.0
368.0
347.0
394.0
421.0
365.0
350.0
397.0
411.0
344.0
317.0
349.0
361.0
330.0
322.0
357.0
329.0
295.0
328.0
358.0
326.0
293.0
314.0
355.0
335.0
313.0
324.0
360.0
346.0
320.0
332.0
344.0
324.0
321.0
356.0
356.0
317.0
329.0
367.0
355.0
325.0
334.0
368.0
344.0
305.0
326.0
363.0
353.0
312.0
332.0
364.0
341.0
317.0
348.0
355.0
325.0
320.0
362.0
350.0
314.0
318.0
370.0
356.0
286.0
321.0
390.0
375.0
320.0
318.0
375.0
375.0
324.0
337.0
358.0
335.0
316.0
334.0
330.0
322.0
320.0
351.0
356.0
306.0
304.0
364.0
369.0
302.0
303.0
357.0
347.0
311.0
396.0
577.0
625.0
561.0
400.0
223.0
115.0
197.0
362.0
374.0
280.0
265.0
351.0
372.0
303.0
289.0
352.0
376.0
323.0
299.0
356.0
382.0
319.0
315.0
366.0
373.0
341.0
353.0
386.0
354.0
316.0
367.0
419.0
365.0
328.0
376.0
415.0
360.0
342.0
401.0
420.0
369.0
345.0
389.0
409.0
391.0
378.0
394.0
366.0
343.0
354.0
371.0
341.0
289.0
339.0
375.0
330.0
301.0
327.0
357.0
335.0
327.0
344.0
345.0
312.0
299.0
359.0
365.0
315.0
333.0
359.0
347.0
293.0
336.0
409.0
371.0
310.0
323.0
347.0
337.0
329.0
371.0
351.0
284.0
324.0
399.0
389.0
320.0
300.0
362.0
384.0
318.0
306.0
355.0
374.0
344.0
322.0
352.0
354.0
318.0
327.0
377.0
346.0
290.0
369.0
409.0
336.0
274.0
310.0
378.0
383.0
321.0
342.0
403.0
382.0
349.0
365.0
343.0
318.0
351.0
380.0
331.0
287.0
298.0
300.0
313.0
320.0
313.0
378.0
396.0
343.0
340.0
357.0
321.0
309.0
356.0
404.0
424.0
481.0
591.0
656.0
425.0
108.0
93.0
249.0
369.0
350.0
333.0
322.0
299.0
316.0
371.0
346.0
324.0
361.0
382.0
324.0
285.0
360.0
398.0
345.0
335.0
368.0
389.0
366.0
331.0
362.0
380.0
355.0
352.0
395.0
378.0
372.0
386.0
399.0
363.0
377.0
410.0
371.0
359.0
421.0
444.0
385.0
323.0
353.0
383.0
345.0
363.0
380.0
377.0
327.0
311.0
316.0
359.0
343.0
303.0
314.0
342.0
359.0
336.0
319.0
345.0
341.0
338.0
365.0
371.0
333.0
307.0
349.0
372.0
342.0
321.0
366.0
383.0
352.0
342.0
341.0
340.0
353.0
363.0
372.0
350.0
313.0
325.0
382.0
367.0
318.0
350.0
382.0
336.0
301.0
345.0
362.0
320.0
321.0
364.0
366.0
324.0
308.0
356.0
362.0
326.0
317.0
353.0
386.0
366.0
321.0
309.0
326.0
333.0
348.0
376.0
377.0
307.0
303.0
345.0
348.0
332.0
350.0
383.0
345.0
305.0
336.0
357.0
336.0
328.0
348.0
324.0
290.0
315.0
355.0
352.0
317.0
331.0
368.0
361.0
310.0
317.0
350.0
333.0
345.0
461.0
598.0
599.0
483.0
304.0
182.0
147.0
233.0
373.0
382.0
299.0
279.0
343.0
354.0
314.0
310.0
352.0
359.0
320.0
317.0
356.0
343.0
314.0
342.0
374.0
342.0
315.0
353.0
387.0
355.0
324.0
352.0
382.0
361.0
351.0
388.0
386.0
350.0
358.0
403.0
400.0
363.0
356.0
384.0
383.0
371.0
383.0
392.0
360.0
330.0
348.0
365.0
331.0
301.0
327.0
348.0
317.0
309.0
333.0
314.0
292.0
307.0
345.0
331.0
295.0
317.0
364.0
337.0
292.0
324.0
375.0
332.0
290.0
320.0
357.0
327.0
303.0
340.0
356.0
330.0
313.0
340.0
356.0
320.0
312.0
352.0
355.0
314.0
317.0
357.0
345.0
306.0
322.0
358.0
341.0
314.0
335.0
354.0
313.0
304.0
349.0
369.0
325.0
304.0
350.0
361.0
318.0
309.0
352.0
362.0
327.0
323.0
344.0
336.0
315.0
339.0
381.0
349.0
305.0
333.0
362.0
328.0
311.0
347.0
348.0
308.0
311.0
353.0
367.0
319.0
296.0
338.0
354.0
322.0
318.0
346.0
346.0
332.0
394.0
533.0
618.0
576.0
419.0
221.0
120.0
191.0
338.0
380.0
310.0
273.0
326.0
351.0
310.0
290.0
340.0
364.0
330.0
321.0
363.0
354.0
314.0
339.0
382.0
356.0
321.0
355.0
395.0
354.0
317.0
358.0
396.0
365.0
339.0
384.0
410.0
372.0
355.0
396.0
413.0
371.0
361.0
400.0
404.0
366.0
370.0
423.0
397.0
328.0
335.0
369.0
351.0
323.0
325.0
341.0
328.0
315.0
339.0
344.0
314.0
312.0
350.0
358.0
321.0
298.0
344.0
358.0
324.0
323.0
359.0
351.0
321.0
337.0
369.0
341.0
320.0
359.0
376.0
323.0
302.0
350.0
389.0
344.0
305.0
345.0
372.0
336.0
318.0
361.0
364.0
330.0
338.0
361.0
344.0
318.0
334.0
364.0
343.0
315.0
344.0
376.0
340.0
317.0
347.0
375.0
327.0
303.0
349.0
374.0
333.0
308.0
353.0
367.0
334.0
328.0
367.0
361.0
332.0
339.0
378.0
362.0
322.0
333.0
343.0
322.0
308.0
338.0
358.0
331.0
311.0
344.0
368.0
335.0
314.0
352.0
366.0
309.0
312.0
415.0
529.0
574.0
589.0
485.0
232.0
83.0
154.0
340.0
375.0
299.0
283.0
339.0
351.0
314.0
320.0
349.0
338.0
325.0
343.0
360.0
342.0
331.0
351.0
366.0
336.0
334.0
383.0
384.0
332.0
336.0
382.0
377.0
348.0
365.0
401.0
383.0
357.0
381.0
413.0
373.0
350.0
398.0
433.0
380.0
348.0
395.0
420.0
365.0
332.0
368.0
373.0
325.0
320.0
361.0
353.0
309.0
322.0
369.0
334.0
291.0
325.0
370.0
341.0
299.0
333.0
373.0
336.0
302.0
333.0
360.0
344.0
328.0
357.0
364.0
325.0
326.0
357.0
351.0
318.0
331.0
366.0
362.0
327.0
331.0
366.0
347.0
310.0
335.0
378.0
348.0
319.0
335.0
362.0
342.0
324.0
349.0
363.0
327.0
312.0
348.0
359.0
328.0
328.0
361.0
351.0
313.0
323.0
372.0
363.0
317.0
324.0
366.0
346.0
313.0
332.0
367.0
348.0
332.0
368.0
374.0
326.0
309.0
355.0
364.0
319.0
299.0
338.0
353.0
320.0
322.0
360.0
355.0
320.0
321.0
359.0
346.0
301.0
331.0
423.0
521.0
581.0
599.0
455.0
194.0
90.0
182.0
339.0
357.0
308.0
315.0
334.0
309.0
307.0
342.0
353.0
321.0
320.0
360.0
371.0
330.0
330.0
371.0
357.0
332.0
355.0
383.0
345.0
332.0
380.0
399.0
357.0
330.0
378.0
415.0
379.0
354.0
394.0
421.0
382.0
370.0
397.0
392.0
355.0
370.0
413.0
380.0
332.0
362.0
405.0
348.0
297.0
327.0
363.0
331.0
297.0
320.0
334.0
315.0
320.0
338.0
337.0
317.0
313.0
342.0
350.0
325.0
315.0
340.0
339.0
317.0
330.0
352.0
346.0
318.0
331.0
360.0
333.0
307.0
340.0
368.0
327.0
303.0
345.0
366.0
322.0
297.0
351.0
365.0
317.0
306.0
348.0
347.0
311.0
318.0
357.0
344.0
310.0
327.0
351.0
332.0
314.0
339.0
353.0
320.0
309.0
347.0
363.0
313.0
299.0
342.0
357.0
313.0
320.0
371.0
367.0
312.0
302.0
337.0
351.0
319.0
307.0
337.0
326.0
300.0
321.0
354.0
331.0
305.0
336.0
347.0
310.0
311.0
367.0
413.0
464.0
569.0
633.0
448.0
162.0
81.0
191.0
329.0
327.0
294.0
312.0
317.0
305.0
323.0
352.0
328.0
300.0
329.0
363.0
337.0
311.0
342.0
370.0
343.0
324.0
352.0
374.0
344.0
332.0
369.0
381.0
344.0
345.0
388.0
386.0
350.0
361.0
408.0
392.0
350.0
365.0
415.0
400.0
348.0
369.0
418.0
387.0
340.0
362.0
394.0
342.0
312.0
349.0
357.0
309.0
307.0
350.0
352.0
310.0
315.0
354.0
340.0
293.0
309.0
367.0
358.0
307.0
318.0
348.0
332.0
320.0
345.0
359.0
323.0
321.0
360.0
356.0
318.0
323.0
361.0
371.0
313.0
308.0
360.0
363.0
312.0
315.0
356.0
357.0
327.0
332.0
359.0
337.0
307.0
337.0
369.0
331.0
307.0
350.0
374.0
339.0
337.0
352.0
348.0
335.0
355.0
387.0
357.0
312.0
323.0
361.0
341.0
307.0
335.0
371.0
343.0
307.0
329.0
357.0
344.0
320.0
342.0
360.0
328.0
319.0
387.0
475.0
552.0
597.0
544.0
325.0
143.0
160.0
293.0
334.0
297.0
304.0
350.0
342.0
308.0
316.0
355.0
343.0
318.0
339.0
369.0
350.0
331.0
355.0
377.0
347.0
334.0
370.0
374.0
342.0
347.0
392.0
391.0
347.0
352.0
401.0
378.0
342.0
379.0
429.0
395.0
360.0
387.0
416.0
376.0
356.0
397.0
420.0
372.0
331.0
367.0
386.0
345.0
316.0
347.0
353.0
326.0
319.0
346.0
337.0
322.0
329.0
351.0
334.0
318.0
347.0
368.0
328.0
306.0
348.0
374.0
329.0
306.0
349.0
370.0
325.0
312.0
363.0
371.0
330.0
326.0
376.0
363.0
304.0
313.0
362.0
358.0
328.0
330.0
361.0
346.0
322.0
348.0
366.0
332.0
314.0
351.0
363.0
323.0
318.0
366.0
378.0
323.0
312.0
372.0
385.0
341.0
350.0
381.0
342.0
296.0
330.0
372.0
338.0
289.0
318.0
360.0
334.0
302.0
331.0
358.0
328.0
315.0
342.0
346.0
318.0
325.0
417.0
531.0
577.0
586.0
457.0
197.0
77.0
158.0
344.0
380.0
302.0
293.0
324.0
319.0
303.0
333.0
368.0
322.0
295.0
342.0
370.0
334.0
314.0
354.0
373.0
334.0
324.0
367.0
375.0
338.0
340.0
386.0
384.0
334.0
347.0
395.0
387.0
355.0
372.0
409.0
386.0
354.0
385.0
415.0
393.0
364.0
384.0
401.0
368.0
342.0
362.0
362.0
326.0
319.0
348.0
339.0
306.0
319.0
344.0
326.0
304.0
329.0
353.0
320.0
297.0
329.0
357.0
329.0
309.0
335.0
365.0
335.0
312.0
339.0
350.0
331.0
325.0
350.0
360.0
313.0
320.0
372.0
348.0
311.0
319.0
365.0
348.0
303.0
336.0
365.0
342.0
304.0
326.0
354.0
336.0
315.0
353.0
353.0
308.0
315.0
359.0
366.0
329.0
326.0
380.0
374.0
315.0
301.0
341.0
344.0
308.0
311.0
340.0
320.0
300.0
327.0
360.0
326.0
283.0
317.0
350.0
324.0
314.0
338.0
348.0
368.0
482.0
622.0
615.0
407.0
189.0
126.0
193.0
294.0
354.0
345.0
290.0
270.0
314.0
353.0
321.0
296.0
336.0
352.0
323.0
317.0
358.0
361.0
323.0
321.0
368.0
371.0
329.0
327.0
372.0
370.0
339.0
354.0
392.0
370.0
342.0
373.0
404.0
375.0
352.0
393.0
422.0
365.0
338.0
389.0
410.0
364.0
350.0
382.0
385.0
336.0
319.0
349.0
344.0
308.0
311.0
343.0
333.0
302.0
311.0
342.0
326.0
302.0
319.0
351.0
327.0
305.0
342.0
356.0
319.0
309.0
341.0
350.0
319.0
317.0
353.0
347.0
311.0
315.0
355.0
350.0
315.0
321.0
357.0
343.0
311.0
328.0
364.0
338.0
305.0
327.0
353.0
324.0
311.0
342.0
353.0
318.0
320.0
360.0
361.0
318.0
330.0
378.0
370.0
318.0
316.0
352.0
337.0
303.0
320.0
354.0
325.0
291.0
312.0
349.0
324.0
312.0
343.0
346.0
311.0
307.0
342.0
354.0
349.0
434.0
594.0
641.0
478.0
235.0
141.0
170.0
258.0
336.0
353.0
305.0
278.0
328.0
362.0
306.0
283.0
336.0
367.0
329.0
301.0
341.0
373.0
343.0
321.0
349.0
358.0
348.0
370.0
384.0
334.0
317.0
368.0
409.0
355.0
323.0
373.0
417.0
374.0
340.0
382.0
419.0
386.0
356.0
394.0
421.0
362.0
330.0
388.0
408.0
339.0
304.0
350.0
359.0
317.0
309.0
338.0
337.0
311.0
316.0
342.0
333.0
314.0
326.0
339.0
322.0
313.0
354.0
357.0
310.0
311.0
361.0
355.0
312.0
324.0
369.0
360.0
314.0
320.0
361.0
348.0
318.0
339.0
362.0
336.0
312.0
340.0
376.0
342.0
310.0
344.0
368.0
323.0
310.0
351.0
374.0
323.0
310.0
352.0
358.0
332.0
334.0
371.0
352.0
314.0
342.0
377.0
372.0
351.0
335.0
335.0
319.0
320.0
345.0
347.0
312.0
299.0
348.0
355.0
309.0
307.0
356.0
364.0
314.0
306.0
345.0
345.0
324.0
383.0
543.0
628.0
562.0
371.0
198.0
133.0
208.0
339.0
384.0
318.0
268.0
304.0
350.0
324.0
308.0
342.0
351.0
326.0
327.0
359.0
352.0
323.0
346.0
377.0
347.0
315.0
345.0
390.0
364.0
334.0
374.0
393.0
351.0
338.0
382.0
403.0
371.0
364.0
398.0
402.0
351.0
354.0
412.0
416.0
364.0
373.0
407.0
377.0
324.0
332.0
372.0
345.0
309.0
326.0
343.0
320.0
304.0
334.0
361.0
323.0
297.0
331.0
351.0
324.0
316.0
341.0
344.0
328.0
323.0
346.0
340.0
315.0
330.0
365.0
345.0
306.0
327.0
373.0
345.0
306.0
335.0
366.0
334.0
315.0
345.0
359.0
329.0
315.0
344.0
353.0
322.0
318.0
362.0
357.0
307.0
312.0
363.0
360.0
320.0
332.0
355.0
334.0
320.0
353.0
378.0
335.0
317.0
366.0
393.0
345.0
308.0
331.0
352.0
323.0
318.0
342.0
336.0
310.0
315.0
355.0
346.0
311.0
322.0
361.0
340.0
306.0
323.0
357.0
356.0
379.0
499.0
627.0
599.0
395.0
205.0
144.0
202.0
312.0
374.0
338.0
273.0
285.0
350.0
350.0
307.0
316.0
358.0
346.0
320.0
344.0
370.0
338.0
320.0
354.0
377.0
346.0
336.0
376.0
386.0
345.0
339.0
386.0
396.0
357.0
355.0
397.0
397.0
362.0
366.0
409.0
403.0
370.0
381.0
405.0
380.0
358.0
387.0
400.0
353.0
331.0
356.0
369.0
326.0
301.0
342.0
353.0
309.0
302.0
343.0
348.0
318.0
317.0
354.0
339.0
312.0
323.0
355.0
341.0
316.0
334.0
362.0
340.0
316.0
340.0
367.0
344.0
330.0
350.0
352.0
325.0
328.0
358.0
354.0
321.0
328.0
368.0
363.0
325.0
326.0
363.0
353.0
315.0
330.0
365.0
346.0
316.0
336.0
363.0
333.0
319.0
356.0
368.0
335.0
305.0
340.0
365.0
341.0
334.0
361.0
355.0
336.0
350.0
375.0
342.0
304.0
329.0
368.0
330.0
287.0
323.0
371.0
328.0
296.0
329.0
361.0
327.0
317.0
352.0
356.0
309.0
317.0
391.0
463.0
533.0
603.0
568.0
305.0
94.0
110.0
281.0
370.0
319.0
297.0
333.0
334.0
312.0
330.0
353.0
327.0
311.0
350.0
378.0
338.0
308.0
351.0
377.0
343.0
326.0
363.0
376.0
344.0
343.0
375.0
372.0
354.0
372.0
404.0
374.0
340.0
376.0
417.0
383.0
353.0
383.0
417.0
385.0
360.0
388.0
409.0
367.0
343.0
372.0
378.0
334.0
321.0
352.0
348.0
301.0
306.0
352.0
343.0
309.0
319.0
347.0
330.0
299.0
324.0
366.0
337.0
304.0
332.0
353.0
327.0
316.0
346.0
360.0
328.0
318.0
350.0
359.0
323.0
320.0
352.0
350.0
320.0
332.0
366.0
343.0
307.0
333.0
367.0
336.0
307.0
343.0
376.0
327.0
301.0
338.0
362.0
327.0
317.0
350.0
358.0
326.0
318.0
355.0
349.0
320.0
326.0
359.0
346.0
324.0
344.0
376.0
359.0
326.0
339.0
358.0
326.0
309.0
344.0
348.0
310.0
301.0
340.0
351.0
312.0
304.0
343.0
346.0
318.0
322.0
352.0
334.0
315.0
364.0
477.0
570.0
590.0
510.0
301.0
131.0
141.0
287.0
377.0
324.0
275.0
315.0
346.0
317.0
310.0
350.0
358.0
312.0
316.0
361.0
350.0
320.0
336.0
377.0
360.0
329.0
346.0
373.0
354.0
336.0
370.0
388.0
353.0
344.0
387.0
407.0
361.0
344.0
397.0
413.0
367.0
357.0
408.0
408.0
364.0
371.0
410.0
377.0
333.0
351.0
382.0
346.0
302.0
326.0
353.0
323.0
300.0
334.0
352.0
312.0
305.0
344.0
340.0
300.0
308.0
354.0
350.0
317.0
323.0
351.0
341.0
317.0
334.0
365.0
341.0
308.0
340.0
365.0
332.0
313.0
345.0
361.0
326.0
317.0
356.0
359.0
314.0
310.0
352.0
358.0
323.0
324.0
361.0
358.0
324.0
316.0
351.0
339.0
312.0
334.0
365.0
338.0
306.0
337.0
365.0
333.0
307.0
338.0
364.0
336.0
323.0
350.0
365.0
335.0
333.0
379.0
375.0
318.0
316.0
357.0
348.0
310.0
311.0
342.0
328.0
310.0
332.0
350.0
319.0
308.0
345.0
362.0
318.0
303.0
342.0
362.0
342.0
393.0
555.0
634.0
543.0
340.0
194.0
152.0
221.0
332.0
376.0
321.0
278.0
306.0
350.0
332.0
308.0
334.0
353.0
325.0
317.0
350.0
359.0
331.0
330.0
369.0
372.0
333.0
336.0
380.0
374.0
334.0
345.0
391.0
375.0
344.0
369.0
410.0
392.0
350.0
373.0
410.0
389.0
371.0
396.0
400.0
361.0
362.0
410.0
397.0
330.0
319.0
369.0
361.0
306.0
309.0
349.0
338.0
305.0
310.0
342.0
331.0
310.0
323.0
339.0
322.0
313.0
343.0
359.0
316.0
303.0
350.0
363.0
315.0
306.0
355.0
358.0
320.0
323.0
366.0
346.0
312.0
331.0
362.0
340.0
315.0
339.0
362.0
326.0
313.0
346.0
364.0
331.0
312.0
353.0
368.0
316.0
304.0
353.0
372.0
323.0
309.0
346.0
349.0
325.0
333.0
358.0
343.0
316.0
336.0
368.0
339.0
319.0
347.0
355.0
329.0
327.0
358.0
370.0
337.0
336.0
380.0
371.0
315.0
316.0
354.0
350.0
310.0
319.0
354.0
339.0
304.0
322.0
355.0
334.0
309.0
332.0
355.0
330.0
319.0
347.0
361.0
371.0
462.0
614.0
653.0
454.0
187.0
123.0
210.0
299.0
340.0
339.0
310.0
295.0
335.0
368.0
317.0
294.0
337.0
376.0
345.0
315.0
343.0
373.0
351.0
338.0
362.0
374.0
337.0
331.0
374.0
382.0
346.0
353.0
395.0
386.0
352.0
369.0
410.0
396.0
355.0
381.0
422.0
389.0
365.0
395.0
413.0
371.0
352.0
387.0
395.0
346.0
323.0
357.0
368.0
313.0
303.0
344.0
347.0
313.0
311.0
349.0
334.0
298.0
327.0
379.0
333.0
284.0
317.0
371.0
341.0
304.0
341.0
373.0
333.0
311.0
346.0
360.0
323.0
315.0
355.0
362.0
325.0
325.0
362.0
358.0
326.0
343.0
362.0
325.0
309.0
345.0
375.0
341.0
318.0
344.0
361.0
327.0
318.0
360.0
365.0
323.0
315.0
352.0
363.0
331.0
329.0
354.0
348.0
316.0
326.0
357.0
339.0
315.0
341.0
368.0
334.0
312.0
345.0
369.0
343.0
322.0
343.0
359.0
334.0
329.0
363.0
366.0
327.0
323.0
353.0
353.0
322.0
326.0
354.0
343.0
315.0
325.0
356.0
337.0
313.0
330.0
363.0
342.0
320.0
346.0
354.0
326.0
366.0
491.0
605.0
605.0
482.0
305.0
173.0
154.0
252.0
356.0
351.0
298.0
302.0
343.0
334.0
312.0
334.0
366.0
342.0
322.0
350.0
364.0
334.0
329.0
366.0
383.0
351.0
339.0
367.0
373.0
349.0
351.0
393.0
378.0
343.0
364.0
405.0
385.0
352.0
386.0
434.0
379.0
330.0
386.0
429.0
385.0
353.0
388.0
409.0
363.0
330.0
363.0
370.0
334.0
316.0
344.0
344.0
308.0
315.0
355.0
343.0
309.0
323.0
352.0
344.0
320.0
325.0
349.0
332.0
316.0
345.0
363.0
330.0
318.0
360.0
369.0
314.0
310.0
362.0
367.0
316.0
318.0
363.0
357.0
320.0
333.0
361.0
339.0
314.0
344.0
375.0
344.0
307.0
335.0
366.0
337.0
310.0
340.0
359.0
329.0
321.0
355.0
358.0
323.0
323.0
362.0
352.0
314.0
329.0
365.0
344.0
313.0
338.0
377.0
346.0
317.0
336.0
361.0
332.0
321.0
361.0
377.0
336.0
324.0
356.0
357.0
320.0
313.0
347.0
343.0
311.0
329.0
358.0
338.0
309.0
324.0
359.0
344.0
323.0
348.0
363.0
323.0
334.0
455.0
591.0
613.0
521.0
342.0
180.0
138.0
242.0
367.0
365.0
290.0
287.0
347.0
349.0
313.0
322.0
355.0
341.0
312.0
336.0
368.0
345.0
324.0
355.0
381.0
348.0
330.0
368.0
381.0
340.0
338.0
388.0
391.0
341.0
350.0
396.0
396.0
366.0
374.0
413.0
389.0
355.0
388.0
426.0
389.0
350.0
392.0
420.0
357.0
314.0
347.0
373.0
333.0
308.0
339.0
348.0
308.0
305.0
344.0
339.0
306.0
312.0
352.0
338.0
299.0
316.0
361.0
345.0
307.0
329.0
353.0
324.0
308.0
347.0
368.0
330.0
312.0
345.0
359.0
329.0
324.0
354.0
352.0
318.0
324.0
362.0
341.0
318.0
338.0
360.0
335.0
310.0
340.0
368.0
335.0
309.0
338.0
364.0
337.0
314.0
344.0
358.0
321.0
310.0
351.0
360.0
320.0
318.0
352.0
351.0
327.0
327.0
362.0
343.0
312.0
335.0
362.0
340.0
322.0
346.0
358.0
318.0
312.0
361.0
380.0
336.0
320.0
353.0
363.0
330.0
318.0
354.0
346.0
311.0
317.0
350.0
343.0
316.0
332.0
361.0
335.0
305.0
337.0
367.0
331.0
339.0
449.0
589.0
613.0
516.0
330.0
174.0
136.0
245.0
369.0
359.0
284.0
286.0
343.0
340.0
306.0
327.0
359.0
333.0
308.0
333.0
371.0
348.0
325.0
351.0
370.0
342.0
335.0
371.0
381.0
346.0
341.0
378.0
387.0
351.0
359.0
403.0
394.0
358.0
366.0
410.0
399.0
366.0
383.0
421.0
404.0
365.0
379.0
403.0
373.0
338.0
362.0
374.0
322.0
308.0
349.0
354.0
302.0
301.0
348.0
348.0
306.0
308.0
351.0
338.0
303.0
327.0
366.0
332.0
299.0
337.0
362.0
327.0
310.0
344.0
366.0
331.0
316.0
353.0
357.0
322.0
324.0
362.0
356.0
318.0
332.0
373.0
345.0
311.0
328.0
370.0
347.0
312.0
334.0
365.0
342.0
316.0
342.0
366.0
334.0
319.0
348.0
356.0
325.0
320.0
355.0
359.0
322.0
323.0
361.0
358.0
318.0
321.0
358.0
348.0
322.0
336.0
365.0
346.0
316.0
338.0
366.0
347.0
329.0
355.0
371.0
329.0
318.0
353.0
360.0
321.0
315.0
347.0
342.0
304.0
314.0
356.0
345.0
316.0
335.0
363.0
338.0
307.0
334.0
373.0
398.0
475.0
604.0
642.0
433.0
172.0
125.0
228.0
306.0
329.0
340.0
323.0
302.0
317.0
352.0
338.0
305.0
329.0
367.0
341.0
319.0
343.0
367.0
344.0
330.0
355.0
379.0
348.0
328.0
358.0
383.0
358.0
354.0
389.0
385.0
348.0
360.0
408.0
395.0
349.0
370.0
428.0
408.0
350.0
368.0
423.0
403.0
354.0
369.0
389.0
350.0
325.0
351.0
362.0
322.0
303.0
340.0
347.0
300.0
301.0
350.0
346.0
305.0
312.0
349.0
342.0
303.0
318.0
352.0
337.0
307.0
329.0
363.0
336.0
323.0
350.0
362.0
330.0
312.0
351.0
367.0
327.0
322.0
358.0
359.0
317.0
323.0
362.0
354.0
318.0
324.0
362.0
354.0
320.0
334.0
361.0
339.0
327.0
337.0
347.0
328.0
325.0
360.0
360.0
327.0
320.0
357.0
354.0
318.0
323.0
369.0
367.0
316.0
315.0
362.0
352.0
314.0
333.0
374.0
348.0
318.0
340.0
362.0
341.0
333.0
362.0
368.0
329.0
316.0
352.0
361.0
312.0
301.0
345.0
352.0
323.0
320.0
355.0
344.0
314.0
339.0
367.0
339.0
309.0
344.0
398.0
444.0
537.0
634.0
568.0
284.0
102.0
160.0
307.0
344.0
314.0
324.0
336.0
316.0
318.0
346.0
341.0
313.0
339.0
374.0
346.0
314.0
343.0
380.0
352.0
330.0
361.0
379.0
347.0
339.0
385.0
398.0
342.0
338.0
400.0
406.0
353.0
350.0
413.0
415.0
355.0
366.0
430.0
410.0
349.0
372.0
428.0
402.0
350.0
369.0
403.0
349.0
310.0
343.0
364.0
322.0
310.0
350.0
338.0
298.0
310.0
356.0
350.0
301.0
311.0
359.0
347.0
308.0
324.0
366.0
341.0
307.0
331.0
365.0
342.0
306.0
330.0
363.0
340.0
318.0
343.0
360.0
331.0
326.0
358.0
342.0
311.0
329.0
373.0
349.0
306.0
318.0
361.0
349.0
314.0
329.0
362.0
345.0
315.0
336.0
363.0
323.0
308.0
355.0
374.0
321.0
302.0
343.0
360.0
328.0
322.0
347.0
346.0
323.0
329.0
364.0
339.0
302.0
324.0
370.0
351.0
312.0
327.0
364.0
343.0
328.0
359.0
364.0
325.0
314.0
349.0
352.0
302.0
302.0
358.0
359.0
298.0
299.0
354.0
351.0
312.0
323.0
362.0
338.0
300.0
329.0
390.0
430.0
514.0
627.0
595.0
318.0
104.0
137.0
291.0
344.0
307.0
310.0
324.0
310.0
317.0
350.0
341.0
308.0
325.0
369.0
351.0
316.0
335.0
367.0
347.0
324.0
356.0
387.0
350.0
319.0
363.0
394.0
354.0
339.0
389.0
404.0
350.0
337.0
397.0
407.0
366.0
369.0
409.0
396.0
365.0
383.0
413.0
391.0
358.0
386.0
397.0
347.0
315.0
342.0
351.0
322.0
309.0
340.0
344.0
304.0
309.0
345.0
342.0
304.0
309.0
350.0
343.0
310.0
315.0
353.0
341.0
306.0
328.0
362.0
334.0
309.0
344.0
363.0
323.0
310.0
347.0
358.0
321.0
317.0
354.0
356.0
317.0
317.0
357.0
349.0
318.0
330.0
365.0
348.0
315.0
330.0
356.0
333.0
318.0
350.0
371.0
326.0
298.0
343.0
364.0
328.0
320.0
358.0
351.0
312.0
310.0
356.0
360.0
325.0
324.0
354.0
343.0
316.0
329.0
366.0
352.0
324.0
332.0
351.0
337.0
326.0
356.0
373.0
332.0
315.0
352.0
365.0
323.0
314.0
342.0
342.0
315.0
317.0
353.0
347.0
315.0
329.0
362.0
345.0
320.0
330.0
356.0
362.0
422.0
564.0
647.0
528.0
282.0
155.0
177.0
253.0
320.0
363.0
332.0
281.0
309.0
364.0
347.0
298.0
317.0
366.0
346.0
315.0
340.0
367.0
342.0
320.0
357.0
380.0
341.0
322.0
364.0
386.0
358.0
347.0
375.0
374.0
349.0
363.0
403.0
390.0
354.0
376.0
419.0
395.0
350.0
379.0
423.0
390.0
354.0
385.0
406.0
356.0
321.0
349.0
366.0
322.0
308.0
339.0
339.0
305.0
307.0
350.0
333.0
293.0
309.0
354.0
349.0
308.0
306.0
347.0
340.0
310.0
331.0
365.0
340.0
303.0
328.0
355.0
333.0
326.0
359.0
353.0
318.0
322.0
361.0
362.0
316.0
325.0
369.0
354.0
315.0
324.0
364.0
352.0
322.0
336.0
362.0
340.0
321.0
354.0
371.0
325.0
300.0
352.0
373.0
327.0
318.0
352.0
350.0
328.0
342.0
371.0
346.0
307.0
328.0
367.0
354.0
331.0
355.0
380.0
338.0
309.0
345.0
374.0
328.0
294.0
339.0
370.0
320.0
293.0
338.0
366.0
333.0
321.0
359.0
359.0
309.0
314.0
382.0
437.0
510.0
603.0
603.0
379.0
144.0
128.0
271.0
333.0
309.0
316.0
336.0
308.0
304.0
351.0
358.0
308.0
305.0
358.0
369.0
330.0
329.0
369.0
369.0
334.0
338.0
373.0
361.0
341.0
362.0
387.0
355.0
339.0
373.0
405.0
376.0
351.0
381.0
406.0
375.0
362.0
404.0
415.0
367.0
363.0
409.0
411.0
370.0
360.0
388.0
362.0
324.0
342.0
380.0
326.0
288.0
326.0
367.0
332.0
293.0
323.0
353.0
331.0
312.0
334.0
346.0
318.0
313.0
357.0
368.0
319.0
315.0
363.0
362.0
311.0
324.0
363.0
342.0
309.0
331.0
363.0
342.0
324.0
351.0
364.0
326.0
310.0
350.0
368.0
342.0
328.0
345.0
345.0
325.0
324.0
367.0
350.0
320.0
332.0
366.0
347.0
314.0
339.0
372.0
344.0
306.0
331.0
360.0
330.0
317.0
357.0
367.0
324.0
314.0
357.0
362.0
324.0
320.0
357.0
351.0
318.0
336.0
388.0
355.0
301.0
323.0
366.0
350.0
302.0
319.0
363.0
338.0
307.0
341.0
361.0
328.0
310.0
352.0
369.0
324.0
311.0
353.0
371.0
370.0
452.0
592.0
629.0
480.0
261.0
167.0
185.0
262.0
349.0
375.0
314.0
283.0
327.0
364.0
329.0
304.0
340.0
366.0
336.0
328.0
363.0
362.0
326.0
333.0
386.0
377.0
322.0
334.0
381.0
370.0
337.0
357.0
401.0
385.0
337.0
363.0
410.0
385.0
354.0
387.0
412.0
376.0
367.0
408.0
415.0
366.0
365.0
415.0
398.0
337.0
334.0
366.0
345.0
316.0
322.0
346.0
332.0
301.0
324.0
345.0
315.0
312.0
345.0
360.0
314.0
294.0
342.0
362.0
329.0
311.0
338.0
348.0
324.0
326.0
360.0
348.0
314.0
333.0
380.0
341.0
299.0
331.0
375.0
346.0
316.0
335.0
359.0
332.0
320.0
356.0
359.0
321.0
314.0
362.0
370.0
320.0
309.0
364.0
355.0
310.0
317.0
361.0
345.0
312.0
333.0
370.0
342.0
316.0
353.0
375.0
335.0
326.0
378.0
383.0
315.0
299.0
352.0
359.0
308.0
297.0
336.0
347.0
315.0
320.0
345.0
334.0
311.0
326.0
362.0
336.0
299.0
322.0
370.0
400.0
496.0
623.0
624.0
364.0
130.0
133.0
267.0
327.0
324.0
331.0
319.0
299.0
311.0
348.0
337.0
302.0
317.0
361.0
348.0
317.0
336.0
369.0
353.0
327.0
355.0
374.0
345.0
335.0
377.0
379.0
336.0
339.0
389.0
396.0
347.0
354.0
415.0
410.0
356.0
358.0
416.0
402.0
356.0
375.0
425.0
399.0
346.0
370.0
397.0
353.0
317.0
344.0
364.0
331.0
312.0
336.0
339.0
314.0
313.0
345.0
344.0
310.0
312.0
347.0
340.0
307.0
324.0
364.0
339.0
303.0
328.0
369.0
340.0
299.0
332.0
365.0
333.0
312.0
347.0
362.0
322.0
314.0
357.0
359.0
316.0
318.0
363.0
346.0
302.0
321.0
366.0
333.0
307.0
342.0
372.0
336.0
304.0
335.0
364.0
329.0
312.0
346.0
363.0
328.0
312.0
351.0
361.0
324.0
334.0
390.0
376.0
312.0
299.0
346.0
343.0
310.0
323.0
337.0
306.0
309.0
348.0
368.0
304.0
280.0
342.0
371.0
330.0
304.0
344.0
361.0
353.0
419.0
584.0
653.0
511.0
257.0
145.0
178.0
257.0
328.0
351.0
311.0
279.0
324.0
373.0
322.0
290.0
336.0
363.0
328.0
310.0
346.0
365.0
336.0
323.0
358.0
372.0
343.0
346.0
384.0
374.0
330.0
335.0
384.0
384.0
357.0
368.0
399.0
367.0
354.0
395.0
417.0
377.0
358.0
389.0
411.0
377.0
359.0
401.0
394.0
341.0
330.0
366.0
362.0
310.0
309.0
348.0
346.0
309.0
310.0
347.0
338.0
320.0
343.0
348.0
317.0
310.0
344.0
366.0
329.0
310.0
352.0
372.0
325.0
310.0
353.0
360.0
328.0
329.0
366.0
349.0
317.0
340.0
371.0
340.0
310.0
346.0
387.0
345.0
301.0
331.0
373.0
338.0
316.0
348.0
370.0
339.0
318.0
346.0
373.0
350.0
342.0
369.0
361.0
329.0
323.0
365.0
350.0
302.0
323.0
361.0
332.0
301.0
335.0
367.0
324.0
305.0
339.0
360.0
328.0
296.0
332.0
371.0
386.0
482.0
634.0
643.0
427.0
181.0
119.0
203.0
302.0
350.0
342.0
297.0
294.0
335.0
355.0
321.0
300.0
348.0
370.0
325.0
309.0
357.0
379.0
340.0
325.0
364.0
368.0
335.0
346.0
390.0
374.0
331.0
353.0
403.0
378.0
341.0
374.0
413.0
384.0
355.0
383.0
411.0
380.0
362.0
397.0
411.0
363.0
352.0
397.0
395.0
331.0
315.0
361.0
351.0
320.0
317.0
335.0
328.0
312.0
340.0
359.0
319.0
296.0
336.0
353.0
325.0
316.0
339.0
353.0
327.0
323.0
355.0
347.0
320.0
334.0
359.0
352.0
315.0
326.0
366.0
357.0
316.0
321.0
364.0
351.0
310.0
331.0
365.0
340.0
316.0
349.0
367.0
319.0
307.0
350.0
358.0
323.0
324.0
364.0
351.0
306.0
326.0
381.0
362.0
309.0
337.0
389.0
355.0
301.0
317.0
365.0
340.0
299.0
314.0
344.0
321.0
301.0
335.0
359.0
326.0
307.0
338.0
350.0
320.0
310.0
342.0
370.0
415.0
542.0
657.0
587.0
307.0
111.0
130.0
256.0
331.0
348.0
325.0
285.0
294.0
350.0
367.0
311.0
289.0
335.0
368.0
338.0
326.0
366.0
362.0
318.0
341.0
392.0
358.0
298.0
323.0
393.0
383.0
311.0
331.0
392.0
385.0
361.0
380.0
402.0
375.0
353.0
387.0
408.0
374.0
364.0
404.0
394.0
353.0
372.0
413.0
371.0
299.0
309.0
372.0
358.0
306.0
296.0
336.0
335.0
307.0
326.0
353.0
321.0
301.0
334.0
354.0
328.0
310.0
345.0
364.0
337.0
326.0
343.0
330.0
335.0
368.0
362.0
306.0
288.0
335.0
385.0
352.0
302.0
354.0
404.0
340.0
296.0
318.0
360.0
336.0
312.0
347.0
378.0
345.0
309.0
337.0
360.0
328.0
302.0
347.0
375.0
349.0
325.0
358.0
344.0
331.0
372.0
379.0
321.0
306.0
356.0
357.0
316.0
312.0
333.0
325.0
303.0
326.0
367.0
344.0
301.0
315.0
385.0
351.0
279.0
302.0
398.0
448.0
491.0
590.0
635.0
398.0
104.0
84.0
245.0
370.0
320.0
280.0
323.0
333.0
310.0
320.0
342.0
337.0
334.0
348.0
366.0
319.0
309.0
360.0
372.0
342.0
333.0
365.0
369.0
360.0
367.0
367.0
341.0
341.0
396.0
403.0
349.0
334.0
386.0
420.0
383.0
354.0
400.0
416.0
358.0
357.0
414.0
415.0
354.0
337.0
384.0
371.0
323.0
321.0
363.0
360.0
297.0
301.0
361.0
346.0
304.0
314.0
346.0
323.0
307.0
344.0
365.0
321.0
313.0
360.0
366.0
311.0
302.0
359.0
372.0
319.0
314.0
358.0
348.0
318.0
335.0
369.0
353.0
328.0
330.0
359.0
340.0
318.0
337.0
360.0
336.0
323.0
349.0
357.0
322.0
319.0
370.0
367.0
303.0
314.0
375.0
368.0
320.0
332.0
381.0
367.0
325.0
328.0
351.0
328.0
307.0
338.0
352.0
316.0
307.0
349.0
359.0
307.0
305.0
356.0
366.0
315.0
300.0
350.0
358.0
332.0
407.0
570.0
643.0
546.0
329.0
171.0
146.0
237.0
349.0
362.0
292.0
270.0
325.0
352.0
319.0
308.0
353.0
362.0
311.0
304.0
363.0
368.0
330.0
330.0
351.0
358.0
336.0
353.0
385.0
364.0
332.0
358.0
394.0
376.0
345.0
373.0
399.0
364.0
356.0
397.0
410.0
368.0
360.0
402.0
405.0
372.0
374.0
393.0
365.0
335.0
356.0
382.0
339.0
291.0
327.0
368.0
329.0
303.0
331.0
350.0
324.0
311.0
338.0
351.0
318.0
313.0
358.0
365.0
317.0
313.0
364.0
354.0
311.0
322.0
361.0
354.0
325.0
332.0
351.0
334.0
320.0
346.0
365.0
334.0
319.0
348.0
366.0
322.0
306.0
360.0
385.0
317.0
292.0
350.0
365.0
315.0
311.0
351.0
349.0
320.0
338.0
373.0
347.0
316.0
342.0
372.0
352.0
323.0
343.0
365.0
327.0
305.0
334.0
345.0
314.0
308.0
353.0
363.0
314.0
308.0
343.0
342.0
312.0
323.0
364.0
348.0
311.0
354.0
492.0
591.0
594.0
503.0
294.0
107.0
134.0
307.0
385.0
313.0
274.0
325.0
356.0
306.0
289.0
342.0
353.0
320.0
326.0
365.0
354.0
322.0
331.0
357.0
342.0
322.0
353.0
377.0
350.0
331.0
368.0
394.0
363.0
342.0
368.0
388.0
364.0
370.0
408.0
388.0
350.0
376.0
428.0
394.0
340.0
368.0
434.0
399.0
296.0
313.0
375.0
355.0
315.0
320.0
341.0
318.0
302.0
337.0
345.0
314.0
318.0
344.0
329.0
305.0
316.0
354.0
355.0
314.0
310.0
341.0
340.0
313.0
335.0
366.0
336.0
306.0
338.0
367.0
347.0
318.0
331.0
351.0
330.0
324.0
358.0
364.0
326.0
311.0
356.0
365.0
310.0
310.0
366.0
365.0
309.0
313.0
358.0
342.0
324.0
347.0
352.0
320.0
322.0
373.0
373.0
314.0
315.0
382.0
394.0
314.0
296.0
351.0
352.0
314.0
308.0
337.0
331.0
306.0
330.0
360.0
332.0
300.0
327.0
373.0
349.0
306.0
320.0
357.0
348.0
394.0
547.0
645.0
549.0
313.0
178.0
174.0
241.0
311.0
356.0
333.0
298.0
313.0
350.0
328.0
300.0
333.0
372.0
341.0
307.0
343.0
379.0
344.0
320.0
355.0
382.0
352.0
329.0
362.0
383.0
352.0
348.0
396.0
399.0
346.0
352.0
397.0
391.0
362.0
378.0
420.0
399.0
356.0
381.0
421.0
386.0
354.0
385.0
407.0
355.0
311.0
344.0
364.0
323.0
310.0
350.0
349.0
312.0
311.0
343.0
337.0
312.0
324.0
353.0
331.0
306.0
328.0
357.0
338.0
318.0
340.0
357.0
341.0
321.0
348.0
368.0
327.0
314.0
352.0
358.0
316.0
319.0
370.0
356.0
315.0
327.0
360.0
349.0
320.0
329.0
359.0
345.0
312.0
327.0
361.0
347.0
319.0
338.0
360.0
334.0
322.0
360.0
377.0
330.0
320.0
375.0
383.0
321.0
298.0
341.0
346.0
315.0
320.0
352.0
330.0
302.0
331.0
364.0
327.0
296.0
335.0
362.0
328.0
308.0
332.0
362.0
380.0
467.0
616.0
631.0
400.0
175.0
141.0
227.0
304.0
334.0
337.0
317.0
291.0
316.0
353.0
332.0
303.0
331.0
368.0
330.0
309.0
347.0
368.0
343.0
337.0
368.0
365.0
329.0
337.0
388.0
378.0
334.0
350.0
390.0
381.0
348.0
366.0
416.0
402.0
341.0
360.0
410.0
393.0
361.0
389.0
414.0
379.0
362.0
389.0
379.0
338.0
339.0
359.0
334.0
301.0
322.0
355.0
330.0
300.0
321.0
358.0
334.0
301.0
329.0
362.0
344.0
306.0
325.0
357.0
340.0
317.0
347.0
366.0
323.0
309.0
357.0
367.0
326.0
319.0
367.0
354.0
318.0
341.0
372.0
344.0
304.0
328.0
366.0
343.0
320.0
347.0
370.0
329.0
312.0
354.0
381.0
345.0
319.0
343.0
364.0
352.0
353.0
378.0
354.0
306.0
326.0
379.0
347.0
292.0
313.0
363.0
345.0
312.0
327.0
363.0
341.0
318.0
340.0
349.0
320.0
320.0
379.0
436.0
502.0
598.0
622.0
396.0
124.0
102.0
272.0
352.0
319.0
300.0
330.0
331.0
307.0
323.0
350.0
330.0
319.0
352.0
363.0
328.0
311.0
356.0
382.0
347.0
335.0
370.0
366.0
329.0
346.0
391.0
381.0
339.0
352.0
401.0
385.0
347.0
373.0
414.0
382.0
362.0
403.0
417.0
368.0
345.0
404.0
413.0
349.0
328.0
376.0
383.0
330.0
315.0
349.0
348.0
317.0
320.0
353.0
339.0
308.0
324.0
357.0
336.0
293.0
322.0
366.0
340.0
312.0
342.0
366.0
325.0
309.0
349.0
367.0
330.0
308.0
358.0
362.0
313.0
313.0
361.0
356.0
313.0
329.0
377.0
351.0
309.0
331.0
373.0
351.0
308.0
333.0
372.0
344.0
320.0
342.0
362.0
338.0
332.0
358.0
368.0
339.0
340.0
365.0
339.0
307.0
328.0
369.0
345.0
293.0
306.0
358.0
350.0
308.0
320.0
348.0
333.0
320.0
343.0
342.0
320.0
340.0
439.0
558.0
579.0
547.0
409.0
199.0
106.0
222.0
381.0
373.0
282.0
281.0
344.0
356.0
308.0
301.0
336.0
336.0
323.0
347.0
364.0
329.0
315.0
361.0
388.0
344.0
315.0
362.0
387.0
344.0
335.0
369.0
371.0
348.0
363.0
402.0
387.0
347.0
379.0
440.0
386.0
322.0
369.0
423.0
392.0
357.0
397.0
412.0
345.0
314.0
356.0
368.0
324.0
312.0
346.0
341.0
302.0
309.0
350.0
342.0
307.0
321.0
354.0
331.0
304.0
329.0
352.0
329.0
315.0
345.0
361.0
315.0
303.0
354.0
370.0
319.0
311.0
362.0
361.0
323.0
331.0
367.0
347.0
314.0
331.0
363.0
342.0
312.0
336.0
373.0
348.0
309.0
334.0
362.0
341.0
323.0
346.0
364.0
334.0
329.0
377.0
378.0
334.0
326.0
365.0
362.0
310.0
310.0
345.0
344.0
315.0
319.0
351.0
334.0
309.0
338.0
354.0
331.0
322.0
349.0
349.0
306.0
312.0
393.0
488.0
545.0
585.0
545.0
304.0
97.0
98.0
241.0
384.0
351.0
291.0
307.0
324.0
308.0
317.0
352.0
343.0
312.0
326.0
363.0
356.0
323.0
342.0
376.0
349.0
318.0
354.0
389.0
357.0
331.0
374.0
396.0
358.0
341.0
374.0
401.0
377.0
352.0
390.0
409.0
373.0
373.0
415.0
400.0
359.0
387.0
423.0
370.0
318.0
358.0
396.0
331.0
286.0
330.0
366.0
319.0
290.0
332.0
347.0
316.0
309.0
340.0
342.0
315.0
321.0
342.0
328.0
307.0
331.0
364.0
335.0
309.0
338.0
370.0
333.0
305.0
342.0
371.0
339.0
309.0
336.0
355.0
325.0
319.0
359.0
363.0
323.0
322.0
354.0
349.0
320.0
327.0
360.0
343.0
309.0
332.0
370.0
344.0
295.0
324.0
361.0
331.0
311.0
350.0
372.0
325.0
304.0
355.0
375.0
340.0
336.0
373.0
361.0
304.0
306.0
361.0
354.0
301.0
304.0
355.0
343.0
296.0
306.0
347.0
335.0
311.0
335.0
354.0
322.0
314.0
346.0
368.0
399.0
521.0
655.0
580.0
299.0
120.0
162.0
280.0
320.0
321.0
326.0
312.0
298.0
322.0
353.0
330.0
318.0
332.0
346.0
328.0
313.0
347.0
370.0
338.0
325.0
365.0
374.0
334.0
336.0
383.0
375.0
338.0
348.0
394.0
384.0
343.0
363.0
412.0
398.0
353.0
371.0
415.0
388.0
356.0
386.0
421.0
379.0
340.0
373.0
388.0
344.0
327.0
348.0
344.0
314.0
313.0
346.0
336.0
306.0
327.0
357.0
330.0
292.0
323.0
363.0
336.0
308.0
339.0
356.0
321.0
307.0
344.0
359.0
322.0
317.0
359.0
366.0
314.0
309.0
356.0
359.0
317.0
315.0
357.0
349.0
314.0
329.0
358.0
339.0
315.0
351.0
379.0
318.0
296.0
347.0
366.0
324.0
312.0
351.0
360.0
320.0
317.0
364.0
356.0
302.0
309.0
358.0
355.0
331.0
340.0
359.0
336.0
327.0
366.0
382.0
332.0
296.0
338.0
363.0
319.0
298.0
343.0
359.0
312.0
306.0
345.0
340.0
298.0
304.0
356.0
354.0
308.0
304.0
347.0
356.0
369.0
487.0
632.0
621.0
402.0
192.0
140.0
202.0
290.0
354.0
337.0
282.0
283.0
337.0
351.0
311.0
311.0
352.0
350.0
315.0
320.0
365.0
363.0
311.0
324.0
374.0
355.0
321.0
348.0
382.0
355.0
333.0
376.0
397.0
348.0
333.0
387.0
406.0
365.0
347.0
391.0
406.0
370.0
372.0
412.0
397.0
350.0
365.0
399.0
370.0
334.0
352.0
363.0
321.0
296.0
333.0
354.0
315.0
297.0
339.0
352.0
315.0
306.0
348.0
352.0
317.0
320.0
344.0
333.0
312.0
336.0
374.0
334.0
298.0
330.0
370.0
345.0
315.0
336.0
358.0
338.0
328.0
351.0
347.0
325.0
329.0
361.0
362.0
317.0
318.0
359.0
356.0
323.0
328.0
358.0
348.0
316.0
340.0
383.0
340.0
304.0
344.0
393.0
362.0
319.0
336.0
361.0
335.0
317.0
344.0
354.0
320.0
310.0
340.0
346.0
315.0
318.0
356.0
348.0
313.0
327.0
372.0
349.0
302.0
327.0
421.0
508.0
580.0
616.0
470.0
196.0
93.0
186.0
333.0
332.0
282.0
308.0
350.0
317.0
299.0
344.0
363.0
326.0
316.0
362.0
354.0
308.0
324.0
372.0
361.0
330.0
347.0
383.0
363.0
324.0
342.0
388.0
373.0
338.0
367.0
394.0
371.0
357.0
395.0
404.0
368.0
365.0
410.0
405.0
363.0
367.0
406.0
394.0
348.0
350.0
384.0
362.0
322.0
334.0
359.0
332.0
305.0
339.0
376.0
331.0
275.0
322.0
363.0
326.0
307.0
343.0
352.0
319.0
323.0
356.0
350.0
314.0
321.0
364.0
354.0
322.0
339.0
363.0
330.0
313.0
350.0
369.0
331.0
315.0
355.0
375.0
325.0
308.0
350.0
364.0
323.0
320.0
360.0
357.0
320.0
327.0
362.0
351.0
328.0
338.0
365.0
351.0
324.0
355.0
393.0
361.0
308.0
328.0
357.0
331.0
312.0
335.0
344.0
317.0
307.0
346.0
352.0
315.0
314.0
340.0
341.0
322.0
336.0
359.0
326.0
314.0
388.0
529.0
598.0
581.0
459.0
249.0
111.0
163.0
312.0
369.0
307.0
272.0
325.0
352.0
297.0
294.0
351.0
350.0
314.0
318.0
353.0
337.0
313.0
340.0
380.0
352.0
318.0
348.0
380.0
349.0
325.0
363.0
400.0
364.0
332.0
367.0
395.0
369.0
355.0
391.0
400.0
367.0
368.0
405.0
392.0
356.0
374.0
410.0
373.0
323.0
345.0
377.0
339.0
300.0
326.0
352.0
322.0
305.0
334.0
338.0
306.0
306.0
345.0
344.0
302.0
304.0
354.0
355.0
318.0
311.0
344.0
340.0
315.0
329.0
359.0
341.0
318.0
339.0
368.0
329.0
304.0
348.0
367.0
329.0
309.0
343.0
358.0
325.0
327.0
370.0
351.0
301.0
319.0
367.0
344.0
305.0
324.0
365.0
343.0
305.0
325.0
364.0
338.0
308.0
342.0
367.0
330.0
315.0
353.0
357.0
320.0
322.0
371.0
368.0
332.0
342.0
368.0
343.0
304.0
323.0
363.0
329.0
288.0
318.0
356.0
340.0
310.0
324.0
346.0
321.0
309.0
356.0
369.0
302.0
281.0
352.0
417.0
474.0
562.0
637.0
504.0
211.0
92.0
171.0
305.0
333.0
314.0
320.0
309.0
293.0
317.0
353.0
329.0
301.0
330.0
365.0
335.0
308.0
339.0
372.0
354.0
326.0
348.0
371.0
341.0
336.0
381.0
379.0
330.0
339.0
394.0
385.0
344.0
364.0
408.0
389.0
349.0
370.0
412.0
387.0
359.0
394.0
407.0
365.0
353.0
389.0
382.0
322.0
310.0
348.0
349.0
306.0
297.0
336.0
337.0
310.0
324.0
338.0
316.0
292.0
323.0
358.0
332.0
308.0
335.0
350.0
319.0
307.0
340.0
361.0
325.0
315.0
351.0
352.0
324.0
335.0
362.0
339.0
302.0
324.0
367.0
351.0
316.0
329.0
358.0
343.0
315.0
339.0
366.0
339.0
312.0
338.0
363.0
328.0
313.0
361.0
370.0
310.0
297.0
353.0
366.0
322.0
322.0
370.0
368.0
306.0
307.0
363.0
366.0
327.0
340.0
388.0
374.0
328.0
341.0
361.0
326.0
312.0
351.0
362.0
309.0
296.0
344.0
355.0
316.0
312.0
352.0
355.0
320.0
322.0
355.0
345.0
317.0
338.0
423.0
513.0
567.0
599.0
474.0
203.0
84.0
174.0
350.0
365.0
293.0
296.0
338.0
341.0
318.0
317.0
340.0
321.0
321.0
360.0
357.0
323.0
341.0
387.0
359.0
309.0
340.0
402.0
357.0
312.0
350.0
397.0
370.0
340.0
374.0
403.0
372.0
349.0
390.0
427.0
376.0
353.0
400.0
415.0
369.0
364.0
418.0
404.0
340.0
350.0
398.0
360.0
310.0
334.0
369.0
331.0
295.0
319.0
351.0
325.0
303.0
335.0
358.0
325.0
314.0
347.0
351.0
316.0
322.0
359.0
350.0
321.0
323.0
356.0
349.0
318.0
336.0
375.0
359.0
320.0
344.0
366.0
334.0
314.0
357.0
379.0
334.0
311.0
364.0
376.0
322.0
317.0
370.0
370.0
320.0
325.0
363.0
360.0
322.0
329.0
367.0
349.0
319.0
343.0
375.0
350.0
327.0
353.0
374.0
338.0
321.0
358.0
384.0
345.0
336.0
388.0
380.0
316.0
310.0
364.0
367.0
316.0
314.0
360.0
350.0
318.0
323.0
351.0
335.0
318.0
351.0
370.0
329.0
313.0
350.0
375.0
384.0
465.0
597.0
639.0
451.0
205.0
141.0
222.0
310.0
349.0
348.0
317.0
296.0
330.0
367.0
328.0
295.0
337.0
377.0
339.0
308.0
346.0
380.0
347.0
326.0
364.0
374.0
336.0
336.0
383.0
389.0
341.0
348.0
397.0
388.0
357.0
361.0
404.0
390.0
350.0
387.0
430.0
383.0
342.0
389.0
428.0
385.0
348.0
384.0
398.0
346.0
320.0
344.0
348.0
307.0
318.0
348.0
329.0
291.0
306.0
354.0
338.0
289.0
306.0
356.0
322.0
296.0
330.0
357.0
324.0
306.0
343.0
363.0
323.0
305.0
341.0
373.0
330.0
306.0
351.0
359.0
311.0
315.0
364.0
363.0
304.0
311.0
364.0
346.0
302.0
327.0
368.0
349.0
307.0
321.0
369.0
337.0
301.0
347.0
367.0
321.0
299.0
344.0
366.0
332.0
315.0
347.0
351.0
320.0
330.0
367.0
353.0
317.0
341.0
391.0
361.0
306.0
314.0
349.0
327.0
309.0
340.0
346.0
308.0
300.0
346.0
346.0
308.0
309.0
342.0
342.0
312.0
316.0
347.0
345.0
353.0
471.0
615.0
600.0
412.0
229.0
170.0
204.0
269.0
328.0
341.0
300.0
286.0
328.0
348.0
313.0
308.0
348.0
352.0
312.0
313.0
363.0
353.0
312.0
325.0
370.0
355.0
324.0
343.0
374.0
348.0
333.0
370.0
397.0
356.0
328.0
373.0
404.0
364.0
346.0
394.0
408.0
359.0
353.0
400.0
404.0
360.0
354.0
389.0
371.0
326.0
333.0
361.0
335.0
294.0
321.0
352.0
