3.0
448.0
5546.0
576.0
591.0
589.0
578.0
563.0
545.0
525.0
503.0
478.0
457.0
441.0
432.0
431.0
440.0
460.0
488.0
520.0
529.0
465.0
448.0
534.0
524.0
464.0
471.0
542.0
520.0
467.0
502.0
565.0
528.0
469.0
520.0
579.0
538.0
486.0
546.0
576.0
521.0
494.0
572.0
555.0
481.0
458.0
535.0
518.0
455.0
450.0
520.0
496.0
434.0
455.0
520.0
489.0
431.0
466.0
522.0
479.0
438.0
494.0
516.0
464.0
434.0
525.0
531.0
461.0
439.0
523.0
528.0
460.0
452.0
531.0
512.0
453.0
467.0
538.0
507.0
450.0
474.0
539.0
498.0
437.0
497.0
540.0
483.0
437.0
506.0
538.0
482.0
447.0
526.0
538.0
474.0
448.0
529.0
530.0
480.0
465.0
536.0
524.0
475.0
502.0
566.0
510.0
444.0
482.0
545.0
498.0
437.0
495.0
532.0
482.0
443.0
518.0
533.0
471.0
444.0
541.0
537.0
463.0
448.0
544.0
553.0
569.0
708.0
859.0
779.0
506.0
352.0
416.0
488.0
505.0
537.0
532.0
478.0
454.0
525.0
539.0
482.0
454.0
537.0
539.0
482.0
457.0
548.0
538.0
484.0
496.0
553.0
516.0
456.0
497.0
573.0
532.0
473.0
519.0
576.0
535.0
483.0
548.0
582.0
534.0
499.0
578.0
593.0
536.0
509.0
593.0
595.0
537.0
531.0
599.0
567.0
492.0
506.0
567.0
535.0
459.0
484.0
557.0
505.0
437.0
493.0
539.0
493.0
450.0
518.0
535.0
481.0
453.0
532.0
536.0
480.0
465.0
536.0
523.0
474.0
475.0
551.0
527.0
468.0
483.0
546.0
517.0
461.0
505.0
547.0
494.0
452.0
525.0
538.0
488.0
459.0
538.0
541.0
479.0
458.0
546.0
541.0
470.0
468.0
556.0
534.0
463.0
482.0
551.0
521.0
459.0
498.0
554.0
533.0
472.0
520.0
570.0
527.0
471.0
530.0
536.0
488.0
459.0
534.0
537.0
477.0
460.0
541.0
533.0
473.0
477.0
552.0
523.0
463.0
482.0
542.0
516.0
505.0
638.0
789.0
817.0
712.0
550.0
411.0
382.0
457.0
582.0
570.0
474.0
451.0
553.0
550.0
483.0
474.0
549.0
531.0
477.0
494.0
564.0
530.0
467.0
502.0
567.0
527.0
473.0
530.0
570.0
522.0
481.0
552.0
573.0
516.0
488.0
574.0
576.0
524.0
509.0
597.0
584.0
522.0
528.0
611.0
582.0
522.0
546.0
610.0
574.0
504.0
539.0
579.0
530.0
470.0
522.0
549.0
494.0
461.0
534.0
538.0
483.0
454.0
533.0
533.0
470.0
470.0
552.0
524.0
461.0
481.0
556.0
519.0
465.0
498.0
545.0
499.0
457.0
524.0
556.0
500.0
455.0
525.0
547.0
490.0
465.0
553.0
542.0
475.0
467.0
556.0
535.0
470.0
473.0
552.0
527.0
463.0
490.0
554.0
515.0
459.0
507.0
548.0
503.0
465.0
529.0
556.0
507.0
465.0
553.0
565.0
498.0
471.0
537.0
523.0
465.0
469.0
544.0
520.0
458.0
475.0
548.0
505.0
451.0
495.0
552.0
501.0
450.0
506.0
538.0
503.0
514.0
691.0
817.0
795.0
631.0
491.0
398.0
398.0
459.0
569.0
533.0
449.0
462.0
551.0
519.0
457.0
491.0
548.0
506.0
453.0
503.0
554.0
506.0
458.0
530.0
559.0
488.0
450.0
546.0
568.0
498.0
460.0
553.0
554.0
493.0
490.0
571.0
552.0
496.0
522.0
593.0
557.0
501.0
545.0
597.0
554.0
502.0
566.0
593.0
531.0
484.0
558.0
561.0
494.0
456.0
532.0
530.0
466.0
450.0
527.0
506.0
445.0
460.0
539.0
505.0
445.0
479.0
541.0
494.0
444.0
494.0
534.0
490.0
445.0
511.0
533.0
485.0
446.0
516.0
536.0
486.0
457.0
532.0
506.0
454.0
471.0
545.0
509.0
449.0
477.0
544.0
507.0
453.0
490.0
540.0
496.0
446.0
511.0
540.0
481.0
447.0
526.0
533.0
473.0
457.0
535.0
525.0
467.0
468.0
548.0
514.0
465.0
490.0
575.0
534.0
458.0
477.0
538.0
503.0
451.0
489.0
523.0
485.0
446.0
507.0
520.0
471.0
455.0
534.0
524.0
468.0
462.0
533.0
510.0
467.0
544.0
727.0
802.0
753.0
627.0
468.0
348.0
384.0
535.0
588.0
497.0
435.0
502.0
544.0
495.0
454.0
521.0
530.0
477.0
458.0
543.0
537.0
475.0
475.0
550.0
528.0
478.0
487.0
549.0
525.0
467.0
513.0
562.0
527.0
481.0
531.0
574.0
532.0
496.0
574.0
588.0
529.0
500.0
589.0
589.0
527.0
524.0
607.0
585.0
516.0
515.0
578.0
536.0
474.0
491.0
553.0
504.0
432.0
484.0
528.0
489.0
443.0
502.0
532.0
483.0
441.0
520.0
528.0
471.0
456.0
542.0
525.0
462.0
467.0
547.0
516.0
455.0
476.0
549.0
512.0
459.0
494.0
544.0
507.0
451.0
501.0
530.0
490.0
457.0
520.0
538.0
477.0
455.0
536.0
529.0
472.0
459.0
540.0
519.0
461.0
469.0
547.0
523.0
455.0
487.0
542.0
498.0
448.0
496.0
549.0
500.0
447.0
517.0
549.0
509.0
482.0
540.0
520.0
459.0
455.0
546.0
518.0
447.0
452.0
531.0
507.0
455.0
472.0
549.0
505.0
442.0
483.0
537.0
490.0
444.0
520.0
622.0
689.0
740.0
807.0
649.0
379.0
305.0
486.0
569.0
505.0
459.0
524.0
514.0
470.0
472.0
542.0
509.0
463.0
497.0
547.0
506.0
460.0
503.0
562.0
505.0
451.0
515.0
542.0
494.0
468.0
551.0
555.0
492.0
477.0
563.0
552.0
497.0
504.0
588.0
562.0
504.0
526.0
600.0
565.0
514.0
550.0
597.0
550.0
500.0
557.0
581.0
516.0
470.0
524.0
537.0
473.0
447.0
528.0
520.0
463.0
456.0
530.0
510.0
447.0
461.0
536.0
504.0
449.0
486.0
542.0
497.0
450.0
497.0
533.0
489.0
452.0
511.0
539.0
492.0
451.0
528.0
521.0
463.0
456.0
539.0
523.0
464.0
466.0
545.0
513.0
452.0
477.0
552.0
516.0
453.0
493.0
540.0
497.0
450.0
510.0
542.0
487.0
452.0
530.0
542.0
480.0
466.0
532.0
517.0
469.0
472.0
558.0
527.0
465.0
486.0
566.0
535.0
470.0
490.0
540.0
503.0
464.0
500.0
530.0
480.0
452.0
522.0
534.0
482.0
457.0
524.0
537.0
477.0
469.0
537.0
518.0
469.0
533.0
719.0
792.0
762.0
667.0
513.0
365.0
376.0
526.0
603.0
515.0
441.0
508.0
552.0
503.0
463.0
535.0
542.0
482.0
458.0
551.0
543.0
478.0
493.0
553.0
529.0
481.0
492.0
561.0
526.0
471.0
513.0
571.0
527.0
483.0
547.0
583.0
534.0
494.0
569.0
581.0
536.0
518.0
589.0
594.0
530.0
519.0
608.0
591.0
518.0
515.0
590.0
550.0
472.0
470.0
539.0
515.0
444.0
484.0
539.0
495.0
447.0
503.0
538.0
484.0
445.0
524.0
537.0
478.0
449.0
528.0
533.0
473.0
459.0
544.0
523.0
465.0
487.0
556.0
501.0
445.0
493.0
546.0
496.0
443.0
503.0
546.0
492.0
451.0
522.0
544.0
485.0
456.0
536.0
532.0
472.0
464.0
544.0
524.0
471.0
471.0
547.0
525.0
466.0
487.0
550.0
519.0
456.0
503.0
542.0
499.0
458.0
521.0
559.0
503.0
458.0
531.0
536.0
480.0
460.0
535.0
515.0
464.0
465.0
542.0
520.0
464.0
479.0
550.0
515.0
453.0
488.0
554.0
510.0
469.0
568.0
722.0
785.0
754.0
681.0
482.0
338.0
383.0
566.0
586.0
489.0
446.0
538.0
534.0
477.0
478.0
550.0
524.0
461.0
485.0
559.0
524.0
464.0
511.0
559.0
515.0
470.0
534.0
556.0
507.0
476.0
554.0
561.0
511.0
494.0
577.0
569.0
510.0
512.0
593.0
571.0
518.0
542.0
614.0
570.0
514.0
560.0
611.0
567.0
510.0
553.0
580.0
523.0
455.0
530.0
542.0
484.0
456.0
534.0
528.0
475.0
466.0
542.0
516.0
459.0
471.0
549.0
525.0
456.0
480.0
544.0
507.0
461.0
509.0
549.0
496.0
454.0
523.0
555.0
499.0
458.0
526.0
532.0
480.0
471.0
552.0
533.0
467.0
469.0
553.0
528.0
470.0
488.0
554.0
513.0
461.0
503.0
553.0
511.0
463.0
518.0
547.0
495.0
463.0
536.0
550.0
504.0
478.0
544.0
539.0
481.0
470.0
554.0
533.0
466.0
467.0
538.0
517.0
468.0
495.0
545.0
503.0
457.0
516.0
557.0
498.0
447.0
521.0
574.0
584.0
655.0
841.0
844.0
596.0
377.0
422.0
487.0
496.0
498.0
552.0
515.0
467.0
488.0
551.0
519.0
465.0
503.0
551.0
511.0
469.0
526.0
550.0
498.0
464.0
547.0
558.0
494.0
477.0
567.0
558.0
495.0
487.0
561.0
548.0
493.0
504.0
585.0
559.0
496.0
538.0
602.0
557.0
512.0
562.0
601.0
546.0
501.0
575.0
595.0
528.0
481.0
541.0
542.0
484.0
473.0
550.0
525.0
467.0
467.0
552.0
510.0
444.0
476.0
549.0
505.0
450.0
492.0
538.0
495.0
452.0
509.0
535.0
490.0
460.0
527.0
536.0
474.0
455.0
544.0
543.0
470.0
457.0
541.0
524.0
475.0
474.0
532.0
504.0
455.0
489.0
538.0
498.0
452.0
502.0
534.0
488.0
456.0
524.0
536.0
479.0
454.0
532.0
533.0
477.0
460.0
542.0
532.0
476.0
478.0
548.0
524.0
479.0
499.0
538.0
496.0
447.0
494.0
541.0
494.0
436.0
495.0
529.0
484.0
454.0
520.0
528.0
473.0
454.0
534.0
518.0
468.0
477.0
614.0
703.0
731.0
774.0
707.0
450.0
295.0
406.0
579.0
556.0
459.0
481.0
535.0
503.0
460.0
513.0
534.0
490.0
461.0
539.0
532.0
481.0
471.0
547.0
537.0
471.0
476.0
551.0
538.0
471.0
491.0
570.0
523.0
468.0
521.0
576.0
536.0
486.0
552.0
585.0
534.0
500.0
576.0
588.0
536.0
511.0
594.0
591.0
525.0
516.0
586.0
551.0
489.0
495.0
541.0
498.0
451.0
489.0
537.0
487.0
435.0
497.0
532.0
479.0
441.0
511.0
525.0
473.0
442.0
525.0
534.0
472.0
450.0
532.0
523.0
468.0
466.0
541.0
518.0
460.0
475.0
528.0
499.0
460.0
503.0
544.0
494.0
442.0
510.0
543.0
488.0
442.0
520.0
535.0
479.0
456.0
535.0
524.0
468.0
466.0
543.0
520.0
468.0
486.0
550.0
528.0
492.0
519.0
545.0
489.0
441.0
508.0
536.0
468.0
434.0
521.0
532.0
471.0
443.0
525.0
530.0
469.0
454.0
539.0
517.0
450.0
467.0
597.0
674.0
715.0
787.0
762.0
502.0
305.0
395.0
562.0
547.0
453.0
492.0
529.0
491.0
458.0
529.0
532.0
485.0
470.0
539.0
523.0
472.0
472.0
556.0
537.0
470.0
483.0
552.0
519.0
467.0
513.0
568.0
524.0
467.0
528.0
571.0
528.0
493.0
553.0
575.0
531.0
504.0
585.0
586.0
525.0
514.0
602.0
581.0
515.0
518.0
584.0
549.0
471.0
493.0
559.0
508.0
444.0
484.0
533.0
489.0
452.0
503.0
520.0
466.0
441.0
525.0
530.0
469.0
449.0
534.0
522.0
461.0
460.0
546.0
515.0
451.0
470.0
541.0
509.0
447.0
479.0
539.0
503.0
453.0
505.0
539.0
488.0
439.0
519.0
540.0
467.0
441.0
538.0
535.0
465.0
447.0
538.0
527.0
461.0
461.0
537.0
517.0
465.0
492.0
544.0
510.0
470.0
530.0
560.0
491.0
435.0
514.0
541.0
464.0
425.0
521.0
529.0
474.0
448.0
521.0
512.0
462.0
461.0
535.0
513.0
447.0
467.0
571.0
623.0
673.0
785.0
812.0
564.0
310.0
362.0
524.0
544.0
476.0
506.0
518.0
490.0
461.0
534.0
528.0
467.0
461.0
533.0
520.0
470.0
484.0
550.0
515.0
455.0
490.0
559.0
516.0
456.0
522.0
571.0
513.0
465.0
546.0
571.0
519.0
484.0
572.0
576.0
526.0
499.0
593.0
587.0
517.0
516.0
601.0
577.0
516.0
534.0
586.0
540.0
477.0
515.0
559.0
504.0
439.0
496.0
538.0
482.0
439.0
516.0
534.0
474.0
447.0
528.0
524.0
461.0
449.0
534.0
520.0
463.0
470.0
537.0
508.0
464.0
492.0
530.0
491.0
452.0
509.0
544.0
493.0
445.0
516.0
540.0
484.0
448.0
526.0
529.0
477.0
467.0
543.0
536.0
457.0
455.0
536.0
520.0
458.0
472.0
534.0
504.0
462.0
501.0
547.0
508.0
464.0
525.0
562.0
518.0
460.0
524.0
536.0
479.0
453.0
528.0
523.0
466.0
455.0
524.0
516.0
473.0
478.0
532.0
490.0
450.0
488.0
541.0
499.0
476.0
608.0
760.0
800.0
727.0
605.0
422.0
352.0
424.0
580.0
571.0
469.0
443.0
547.0
544.0
478.0
464.0
540.0
540.0
479.0
481.0
561.0
511.0
449.0
505.0
559.0
520.0
476.0
535.0
553.0
501.0
476.0
554.0
562.0
517.0
498.0
572.0
565.0
510.0
511.0
596.0
583.0
520.0
534.0
600.0
583.0
519.0
542.0
584.0
548.0
500.0
544.0
565.0
509.0
469.0
531.0
542.0
482.0
452.0
531.0
531.0
466.0
453.0
541.0
521.0
454.0
466.0
541.0
519.0
464.0
487.0
542.0
505.0
452.0
505.0
546.0
505.0
458.0
517.0
535.0
490.0
460.0
528.0
540.0
495.0
463.0
532.0
531.0
475.0
470.0
545.0
531.0
464.0
474.0
546.0
519.0
450.0
488.0
554.0
523.0
461.0
515.0
548.0
510.0
483.0
552.0
547.0
470.0
452.0
542.0
532.0
462.0
449.0
544.0
525.0
458.0
469.0
547.0
517.0
464.0
481.0
538.0
498.0
446.0
505.0
592.0
631.0
694.0
836.0
771.0
499.0
314.0
426.0
518.0
499.0
467.0
529.0
516.0
463.0
465.0
545.0
522.0
457.0
476.0
548.0
521.0
457.0
495.0
551.0
509.0
459.0
518.0
556.0
511.0
454.0
530.0
542.0
491.0
478.0
567.0
558.0
497.0
493.0
585.0
565.0
501.0
512.0
594.0
566.0
512.0
536.0
590.0
550.0
506.0
547.0
573.0
525.0
485.0
524.0
523.0
475.0
456.0
528.0
515.0
452.0
450.0
541.0
516.0
449.0
454.0
535.0
506.0
446.0
476.0
540.0
496.0
443.0
488.0
543.0
491.0
441.0
510.0
544.0
497.0
445.0
513.0
525.0
477.0
456.0
534.0
522.0
464.0
459.0
543.0
520.0
459.0
467.0
540.0
512.0
456.0
485.0
543.0
509.0
454.0
497.0
532.0
497.0
464.0
522.0
547.0
497.0
457.0
544.0
557.0
489.0
465.0
532.0
517.0
466.0
466.0
532.0
500.0
446.0
474.0
539.0
501.0
448.0
494.0
536.0
499.0
454.0
502.0
532.0
494.0
521.0
703.0
815.0
791.0
656.0
498.0
373.0
378.0
488.0
595.0
536.0
452.0
461.0
544.0
522.0
461.0
484.0
541.0
503.0
457.0
518.0
560.0
506.0
450.0
523.0
551.0
495.0
464.0
556.0
552.0
493.0
477.0
554.0
544.0
508.0
500.0
569.0
552.0
501.0
526.0
589.0
557.0
509.0
554.0
599.0
557.0
507.0
563.0
590.0
541.0
494.0
558.0
551.0
487.0
460.0
543.0
532.0
468.0
467.0
541.0
502.0
440.0
465.0
546.0
507.0
445.0
479.0
534.0
499.0
445.0
496.0
530.0
488.0
457.0
518.0
523.0
482.0
456.0
532.0
529.0
474.0
460.0
538.0
529.0
473.0
473.0
539.0
515.0
458.0
493.0
541.0
493.0
445.0
503.0
545.0
492.0
451.0
518.0
540.0
482.0
447.0
526.0
531.0
483.0
467.0
545.0
531.0
469.0
476.0
561.0
546.0
493.0
494.0
551.0
508.0
445.0
483.0
533.0
488.0
443.0
501.0
535.0
484.0
449.0
522.0
535.0
476.0
454.0
533.0
524.0
462.0
473.0
613.0
704.0
741.0
776.0
716.0
473.0
314.0
412.0
572.0
553.0
463.0
481.0
538.0
499.0
457.0
519.0
539.0
492.0
464.0
537.0
535.0
481.0
470.0
551.0
540.0
474.0
479.0
559.0
536.0
484.0
501.0
567.0
534.0
483.0
528.0
582.0
541.0
483.0
538.0
580.0
542.0
504.0
577.0
592.0
539.0
518.0
600.0
589.0
523.0
511.0
582.0
554.0
483.0
480.0
545.0
513.0
450.0
487.0
556.0
508.0
439.0
472.0
537.0
498.0
442.0
499.0
530.0
483.0
445.0
526.0
533.0
471.0
457.0
541.0
520.0
454.0
467.0
549.0
518.0
450.0
475.0
545.0
513.0
450.0
495.0
553.0
496.0
455.0
511.0
546.0
486.0
449.0
520.0
523.0
473.0
460.0
543.0
532.0
467.0
463.0
542.0
522.0
462.0
474.0
546.0
513.0
463.0
500.0
555.0
514.0
476.0
528.0
567.0
500.0
452.0
528.0
530.0
467.0
442.0
533.0
529.0
462.0
451.0
540.0
523.0
466.0
468.0
536.0
513.0
459.0
481.0
545.0
545.0
588.0
742.0
860.0
744.0
474.0
382.0
437.0
492.0
503.0
549.0
526.0
465.0
453.0
549.0
540.0
467.0
466.0
554.0
534.0
472.0
482.0
556.0
531.0
469.0
501.0
559.0
524.0
472.0
529.0
567.0
515.0
480.0
560.0
571.0
518.0
497.0
578.0
572.0
515.0
512.0
603.0
583.0
520.0
525.0
606.0
580.0
516.0
542.0
594.0
555.0
494.0
527.0
565.0
517.0
459.0
515.0
541.0
487.0
443.0
521.0
534.0
475.0
456.0
532.0
515.0
459.0
473.0
551.0
525.0
466.0
482.0
546.0
519.0
458.0
495.0
551.0
509.0
456.0
507.0
548.0
502.0
468.0
530.0
543.0
490.0
463.0
546.0
534.0
466.0
456.0
550.0
535.0
473.0
477.0
547.0
518.0
462.0
492.0
554.0
510.0
454.0
510.0
548.0
500.0
461.0
526.0
540.0
488.0
462.0
549.0
540.0
489.0
479.0
560.0
528.0
468.0
477.0
552.0
519.0
455.0
473.0
539.0
511.0
456.0
490.0
539.0
505.0
459.0
516.0
549.0
491.0
454.0
523.0
540.0
505.0
551.0
734.0
828.0
786.0
609.0
462.0
380.0
407.0
500.0
585.0
524.0
448.0
490.0
558.0
523.0
461.0
509.0
553.0
504.0
466.0
534.0
542.0
488.0
471.0
553.0
549.0
491.0
479.0
555.0
544.0
491.0
496.0
582.0
543.0
481.0
515.0
579.0
545.0
493.0
543.0
599.0
551.0
499.0
566.0
594.0
539.0
510.0
585.0
580.0
523.0
501.0
576.0
556.0
483.0
484.0
563.0
522.0
451.0
472.0
548.0
507.0
436.0
477.0
537.0
496.0
444.0
502.0
541.0
491.0
447.0
520.0
538.0
491.0
460.0
528.0
528.0
480.0
472.0
546.0
528.0
464.0
476.0
556.0
524.0
461.0
478.0
544.0
522.0
464.0
500.0
538.0
482.0
447.0
522.0
536.0
480.0
458.0
533.0
534.0
473.0
459.0
545.0
524.0
461.0
473.0
551.0
531.0
467.0
483.0
561.0
518.0
445.0
475.0
538.0
508.0
445.0
505.0
531.0
483.0
446.0
514.0
530.0
483.0
454.0
535.0
518.0
477.0
508.0
674.0
773.0
779.0
719.0
573.0
381.0
351.0
471.0
558.0
499.0
444.0
505.0
560.0
506.0
443.0
518.0
559.0
491.0
453.0
514.0
532.0
503.0
466.0
539.0
541.0
464.0
472.0
561.0
549.0
481.0
483.0
564.0
548.0
497.0
504.0
562.0
551.0
497.0
553.0
597.0
556.0
491.0
571.0
594.0
524.0
509.0
604.0
596.0
515.0
488.0
572.0
561.0
483.0
478.0
542.0
528.0
454.0
478.0
547.0
509.0
455.0
494.0
537.0
493.0
451.0
514.0
536.0
481.0
442.0
537.0
551.0
479.0
452.0
538.0
540.0
474.0
470.0
551.0
526.0
467.0
483.0
550.0
519.0
459.0
500.0
557.0
507.0
446.0
502.0
548.0
505.0
453.0
516.0
533.0
484.0
468.0
542.0
528.0
463.0
465.0
545.0
516.0
452.0
472.0
553.0
518.0
448.0
483.0
556.0
513.0
462.0
524.0
567.0
490.0
427.0
507.0
543.0
479.0
423.0
500.0
528.0
467.0
442.0
529.0
527.0
451.0
441.0
536.0
512.0
434.0
447.0
549.0
587.0
626.0
752.0
848.0
674.0
379.0
332.0
449.0
518.0
489.0
516.0
502.0
454.0
446.0
525.0
510.0
445.0
449.0
540.0
528.0
442.0
447.0
535.0
510.0
445.0
483.0
531.0
494.0
447.0
510.0
550.0
488.0
458.0
535.0
548.0
489.0
477.0
558.0
555.0
506.0
497.0
574.0
552.0
502.0
508.0
584.0
564.0
510.0
528.0
569.0
515.0
458.0
502.0
540.0
478.0
434.0
504.0
518.0
455.0
429.0
509.0
513.0
446.0
427.0
516.0
503.0
444.0
445.0
517.0
491.0
436.0
463.0
535.0
487.0
427.0
475.0
524.0
476.0
437.0
494.0
520.0
470.0
432.0
509.0
522.0
468.0
442.0
524.0
515.0
454.0
453.0
534.0
506.0
455.0
464.0
530.0
499.0
439.0
468.0
526.0
491.0
431.0
484.0
534.0
488.0
440.0
504.0
524.0
476.0
454.0
540.0
544.0
484.0
455.0
523.0
505.0
454.0
458.0
528.0
492.0
448.0
470.0
527.0
485.0
439.0
489.0
529.0
490.0
446.0
501.0
518.0
475.0
481.0
638.0
751.0
763.0
706.0
621.0
413.0
320.0
425.0
588.0
554.0
449.0
445.0
536.0
519.0
458.0
481.0
539.0
495.0
444.0
504.0
545.0
488.0
445.0
527.0
543.0
487.0
466.0
544.0
539.0
484.0
471.0
555.0
549.0
498.0
492.0
564.0
545.0
495.0
526.0
598.0
553.0
500.0
545.0
591.0
549.0
519.0
569.0
583.0
536.0
501.0
567.0
563.0
495.0
465.0
538.0
526.0
465.0
461.0
535.0
510.0
449.0
471.0
534.0
498.0
449.0
485.0
536.0
499.0
451.0
500.0
536.0
484.0
451.0
521.0
527.0
473.0
454.0
539.0
530.0
464.0
468.0
555.0
521.0
458.0
470.0
547.0
514.0
458.0
480.0
539.0
505.0
456.0
501.0
546.0
500.0
447.0
524.0
551.0
486.0
451.0
537.0
536.0
474.0
458.0
547.0
529.0
469.0
465.0
541.0
529.0
476.0
488.0
556.0
520.0
478.0
529.0
572.0
511.0
449.0
507.0
551.0
495.0
439.0
521.0
540.0
479.0
448.0
530.0
536.0
476.0
463.0
547.0
528.0
463.0
469.0
559.0
568.0
598.0
727.0
861.0
756.0
473.0
370.0
433.0
498.0
515.0
547.0
529.0
478.0
463.0
552.0
541.0
477.0
466.0
558.0
538.0
475.0
479.0
561.0
538.0
472.0
492.0
554.0
520.0
476.0
524.0
566.0
524.0
486.0
546.0
561.0
528.0
502.0
572.0
586.0
526.0
504.0
593.0
583.0
527.0
533.0
612.0
584.0
532.0
531.0
599.0
564.0
504.0
524.0
559.0
519.0
471.0
522.0
544.0
482.0
456.0
532.0
534.0
470.0
454.0
536.0
525.0
463.0
452.0
550.0
533.0
462.0
466.0
545.0
521.0
460.0
485.0
546.0
508.0
457.0
502.0
552.0
500.0
454.0
527.0
547.0
483.0
456.0
539.0
540.0
481.0
466.0
550.0
531.0
472.0
476.0
541.0
518.0
460.0
480.0
554.0
517.0
457.0
489.0
545.0
514.0
462.0
514.0
547.0
493.0
456.0
535.0
550.0
494.0
465.0
552.0
554.0
506.0
501.0
562.0
524.0
461.0
470.0
543.0
517.0
458.0
486.0
550.0
507.0
451.0
511.0
548.0
495.0
455.0
522.0
541.0
488.0
456.0
548.0
598.0
636.0
717.0
851.0
749.0
463.0
322.0
444.0
542.0
519.0
491.0
532.0
502.0
472.0
514.0
552.0
503.0
463.0
526.0
551.0
497.0
463.0
546.0
565.0
503.0
466.0
550.0
555.0
501.0
488.0
571.0
551.0
509.0
528.0
598.0
543.0
480.0
533.0
601.0
561.0
505.0
557.0
607.0
565.0
524.0
588.0
612.0
557.0
520.0
594.0
590.0
530.0
501.0
565.0
545.0
481.0
482.0
550.0
523.0
467.0
488.0
550.0
512.0
450.0
488.0
544.0
505.0
456.0
520.0
538.0
489.0
457.0
537.0
541.0
484.0
468.0
550.0
534.0
474.0
480.0
558.0
515.0
458.0
491.0
563.0
528.0
468.0
493.0
550.0
521.0
470.0
510.0
536.0
492.0
467.0
542.0
545.0
487.0
469.0
553.0
537.0
478.0
475.0
555.0
533.0
472.0
487.0
563.0
529.0
469.0
500.0
580.0
547.0
487.0
513.0
568.0
513.0
447.0
509.0
539.0
497.0
460.0
526.0
539.0
489.0
463.0
549.0
539.0
479.0
492.0
548.0
517.0
486.0
557.0
716.0
784.0
764.0
690.0
523.0
373.0
378.0
528.0
585.0
495.0
431.0
530.0
546.0
477.0
450.0
545.0
544.0
474.0
460.0
544.0
537.0
473.0
471.0
558.0
541.0
480.0
492.0
555.0
525.0
478.0
525.0
560.0
513.0
480.0
555.0
590.0
518.0
478.0
566.0
579.0
523.0
508.0
598.0
577.0
512.0
517.0
604.0
575.0
501.0
518.0
582.0
533.0
465.0
497.0
547.0
504.0
451.0
504.0
532.0
482.0
449.0
526.0
538.0
464.0
426.0
520.0
526.0
469.0
461.0
538.0
507.0
453.0
467.0
539.0
508.0
449.0
481.0
537.0
502.0
445.0
492.0
530.0
494.0
459.0
517.0
528.0
468.0
453.0
538.0
539.0
456.0
438.0
535.0
523.0
457.0
460.0
542.0
511.0
453.0
479.0
537.0
501.0
449.0
492.0
547.0
500.0
453.0
518.0
547.0
503.0
476.0
554.0
543.0
466.0
448.0
555.0
540.0
452.0
425.0
521.0
519.0
457.0
465.0
538.0
503.0
447.0
487.0
538.0
497.0
441.0
502.0
580.0
630.0
690.0
833.0
786.0
493.0
296.0
405.0
538.0
538.0
489.0
523.0
503.0
460.0
483.0
544.0
503.0
448.0
475.0
545.0
507.0
436.0
498.0
553.0
493.0
444.0
521.0
550.0
496.0
463.0
549.0
544.0
480.0
470.0
565.0
545.0
492.0
500.0
588.0
555.0
486.0
518.0
599.0
566.0
486.0
528.0
594.0
559.0
500.0
549.0
575.0
522.0
471.0
532.0
534.0
475.0
447.0
527.0
515.0
454.0
447.0
528.0
503.0
445.0
463.0
546.0
514.0
442.0
461.0
529.0
497.0
451.0
487.0
521.0
481.0
447.0
511.0
528.0
479.0
455.0
525.0
519.0
460.0
453.0
541.0
519.0
457.0
466.0
545.0
511.0
460.0
476.0
551.0
506.0
442.0
492.0
546.0
488.0
436.0
509.0
542.0
490.0
446.0
533.0
539.0
482.0
471.0
562.0
547.0
477.0
469.0
531.0
509.0
449.0
464.0
529.0
499.0
447.0
478.0
529.0
490.0
448.0
503.0
542.0
485.0
435.0
496.0
523.0
514.0
576.0
770.0
841.0
723.0
488.0
400.0
398.0
451.0
517.0
568.0
496.0
439.0
480.0
547.0
499.0
444.0
497.0
544.0
503.0
444.0
507.0
552.0
503.0
452.0
525.0
534.0
490.0
471.0
542.0
537.0
487.0
487.0
558.0
539.0
487.0
511.0
578.0
542.0
488.0
541.0
598.0
545.0
494.0
561.0
603.0
543.0
504.0
575.0
579.0
524.0
488.0
557.0
531.0
461.0
458.0
542.0
517.0
454.0
461.0
531.0
496.0
441.0
476.0
542.0
496.0
439.0
490.0
531.0
490.0
445.0
498.0
529.0
491.0
460.0
526.0
529.0
478.0
458.0
534.0
527.0
457.0
458.0
544.0
524.0
463.0
478.0
541.0
501.0
454.0
500.0
542.0
494.0
452.0
515.0
541.0
484.0
455.0
525.0
528.0
479.0
464.0
540.0
522.0
479.0
485.0
559.0
532.0
479.0
494.0
549.0
506.0
448.0
483.0
535.0
494.0
445.0
495.0
533.0
487.0
451.0
515.0
526.0
474.0
456.0
540.0
523.0
461.0
477.0
622.0
714.0
753.0
759.0
673.0
426.0
314.0
428.0
582.0
547.0
457.0
484.0
539.0
501.0
453.0
515.0
548.0
492.0
458.0
537.0
541.0
485.0
465.0
548.0
537.0
481.0
485.0
559.0
538.0
475.0
492.0
568.0
537.0
486.0
525.0
577.0
532.0
491.0
555.0
588.0
537.0
501.0
577.0
595.0
537.0
517.0
598.0
590.0
524.0
504.0
572.0
554.0
496.0
493.0
541.0
504.0
458.0
487.0
538.0
491.0
446.0
495.0
534.0
488.0
448.0
513.0
526.0
479.0
453.0
524.0
523.0
469.0
459.0
543.0
526.0
462.0
463.0
541.0
514.0
456.0
482.0
552.0
507.0
452.0
491.0
539.0
498.0
452.0
508.0
539.0
491.0
459.0
522.0
523.0
475.0
459.0
540.0
530.0
462.0
460.0
552.0
530.0
460.0
465.0
546.0
526.0
459.0
488.0
541.0
513.0
471.0
527.0
569.0
515.0
455.0
516.0
533.0
484.0
461.0
524.0
509.0
460.0
453.0
540.0
517.0
458.0
463.0
544.0
515.0
457.0
485.0
533.0
498.0
487.0
597.0
755.0
803.0
715.0
578.0
426.0
363.0
420.0
564.0
566.0
479.0
452.0
538.0
531.0
467.0
466.0
551.0
518.0
458.0
487.0
560.0
534.0
465.0
489.0
547.0
507.0
463.0
523.0
559.0
509.0
467.0
542.0
567.0
512.0
482.0
566.0
568.0
511.0
509.0
590.0
568.0
507.0
527.0
608.0
576.0
513.0
540.0
607.0
569.0
497.0
522.0
568.0
531.0
465.0
514.0
521.0
475.0
454.0
528.0
524.0
464.0
448.0
532.0
518.0
461.0
462.0
541.0
516.0
457.0
471.0
540.0
508.0
447.0
491.0
540.0
493.0
451.0
515.0
549.0
475.0
428.0
519.0
535.0
477.0
453.0
531.0
527.0
466.0
460.0
540.0
514.0
456.0
473.0
543.0
510.0
459.0
488.0
534.0
495.0
453.0
518.0
538.0
494.0
461.0
518.0
527.0
475.0
456.0
544.0
538.0
473.0
461.0
558.0
548.0
492.0
491.0
556.0
516.0
454.0
481.0
543.0
498.0
437.0
489.0
546.0
495.0
448.0
507.0
540.0
508.0
466.0
508.0
513.0
461.0
474.0
608.0
701.0
742.0
758.0
703.0
459.0
309.0
405.0
579.0
554.0
459.0
475.0
540.0
506.0
460.0
513.0
537.0
491.0
458.0
535.0
542.0
489.0
473.0
544.0
533.0
477.0
469.0
555.0
537.0
478.0
497.0
572.0
539.0
487.0
522.0
579.0
542.0
495.0
546.0
590.0
543.0
508.0
573.0
592.0
541.0
514.0
598.0
592.0
535.0
523.0
577.0
547.0
495.0
482.0
553.0
524.0
463.0
472.0
532.0
501.0
453.0
489.0
532.0
492.0
445.0
502.0
535.0
481.0
445.0
523.0
536.0
476.0
458.0
537.0
531.0
463.0
464.0
554.0
525.0
457.0
467.0
543.0
517.0
458.0
487.0
548.0
506.0
458.0
505.0
547.0
498.0
448.0
515.0
541.0
497.0
464.0
532.0
536.0
480.0
465.0
551.0
528.0
466.0
482.0
560.0
517.0
454.0
476.0
550.0
525.0
470.0
503.0
557.0
535.0
485.0
523.0
536.0
487.0
460.0
537.0
532.0
467.0
451.0
541.0
529.0
461.0
456.0
551.0
528.0
475.0
482.0
531.0
500.0
465.0
532.0
669.0
748.0
763.0
740.0
580.0
369.0
336.0
503.0
583.0
513.0
452.0
527.0
542.0
487.0
467.0
541.0
532.0
479.0
480.0
557.0
538.0
473.0
498.0
562.0
522.0
472.0
522.0
557.0
512.0
478.0
551.0
572.0
516.0
480.0
560.0
580.0
524.0
495.0
585.0
585.0
531.0
527.0
603.0
576.0
521.0
544.0
618.0
586.0
511.0
546.0
576.0
531.0
474.0
528.0
547.0
491.0
448.0
522.0
539.0
487.0
453.0
527.0
523.0
478.0
468.0
534.0
518.0
463.0
471.0
546.0
518.0
458.0
490.0
555.0
506.0
452.0
502.0
547.0
506.0
452.0
514.0
540.0
489.0
458.0
535.0
540.0
478.0
462.0
548.0
536.0
469.0
466.0
545.0
526.0
467.0
489.0
546.0
506.0
461.0
519.0
552.0
491.0
455.0
520.0
556.0
511.0
460.0
551.0
576.0
504.0
466.0
536.0
531.0
478.0
464.0
538.0
524.0
464.0
474.0
543.0
514.0
461.0
491.0
548.0
506.0
459.0
514.0
541.0
505.0
515.0
681.0
813.0
801.0
631.0
489.0
394.0
399.0
471.0
574.0
544.0
460.0
460.0
547.0
521.0
462.0
489.0
550.0
514.0
456.0
503.0
561.0
517.0
470.0
522.0
546.0
512.0
469.0
532.0
541.0
501.0
482.0
556.0
545.0
497.0
500.0
582.0
556.0
495.0
520.0
594.0
559.0
508.0
540.0
596.0
554.0
514.0
570.0
588.0
541.0
499.0
561.0
558.0
486.0
460.0
533.0
524.0
468.0
453.0
533.0
517.0
455.0
463.0
539.0
508.0
448.0
478.0
536.0
497.0
456.0
503.0
534.0
488.0
455.0
512.0
529.0
487.0
464.0
532.0
529.0
473.0
452.0
532.0
529.0
467.0
468.0
545.0
516.0
459.0
479.0
542.0
510.0
462.0
490.0
533.0
500.0
455.0
506.0
531.0
488.0
462.0
530.0
537.0
485.0
461.0
536.0
542.0
496.0
482.0
553.0
537.0
476.0
468.0
531.0
514.0
459.0
484.0
528.0
493.0
450.0
499.0
533.0
484.0
443.0
510.0
535.0
484.0
451.0
523.0
544.0
523.0
596.0
784.0
843.0
704.0
458.0
377.0
409.0
469.0
531.0
559.0
489.0
440.0
492.0
546.0
506.0
447.0
501.0
534.0
495.0
462.0
531.0
540.0
489.0
468.0
543.0
534.0
482.0
480.0
556.0
534.0
473.0
501.0
569.0
535.0
479.0
521.0
582.0
546.0
494.0
548.0
587.0
545.0
507.0
581.0
589.0
535.0
510.0
591.0
583.0
511.0
484.0
560.0
546.0
479.0
471.0
537.0
495.0
444.0
476.0
536.0
493.0
435.0
483.0
535.0
499.0
441.0
499.0
534.0
487.0
447.0
522.0
530.0
471.0
454.0
533.0
523.0
465.0
466.0
549.0
518.0
454.0
465.0
538.0
513.0
460.0
493.0
535.0
489.0
449.0
515.0
537.0
479.0
449.0
525.0
539.0
481.0
455.0
537.0
532.0
474.0
464.0
548.0
531.0
475.0
482.0
566.0
542.0
480.0
495.0
537.0
493.0
451.0
506.0
530.0
479.0
445.0
517.0
536.0
477.0
448.0
523.0
530.0
477.0
460.0
532.0
514.0
466.0
493.0
641.0
734.0
752.0
750.0
639.0
404.0
312.0
448.0
586.0
542.0
442.0
484.0
535.0
501.0
461.0
521.0
529.0
479.0
468.0
546.0
531.0
471.0
470.0
558.0
531.0
474.0
490.0
558.0
528.0
475.0
519.0
570.0
526.0
482.0
531.0
580.0
539.0
486.0
556.0
582.0
538.0
507.0
591.0
589.0
531.0
522.0
602.0
586.0
516.0
507.0
578.0
552.0
485.0
490.0
543.0
503.0
451.0
501.0
540.0
489.0
432.0
499.0
540.0
476.0
435.0
521.0
532.0
478.0
450.0
529.0
530.0
473.0
460.0
537.0
521.0
463.0
471.0
541.0
515.0
456.0
489.0
541.0
504.0
455.0
506.0
539.0
501.0
470.0
523.0
519.0
474.0
461.0
544.0
523.0
463.0
464.0
545.0
521.0
459.0
475.0
555.0
525.0
465.0
498.0
559.0
516.0
470.0
519.0
553.0
490.0
448.0
516.0
528.0
471.0
442.0
521.0
524.0
477.0
459.0
526.0
505.0
458.0
466.0
540.0
509.0
447.0
474.0
591.0
653.0
697.0
790.0
780.0
517.0
302.0
388.0
550.0
553.0
470.0
507.0
534.0
483.0
456.0
532.0
534.0
475.0
470.0
548.0
524.0
462.0
484.0
559.0
524.0
460.0
489.0
559.0
525.0
465.0
517.0
561.0
517.0
481.0
546.0
565.0
511.0
494.0
576.0
572.0
516.0
506.0
608.0
584.0
514.0
520.0
601.0
576.0
509.0
531.0
588.0
547.0
484.0
507.0
550.0
509.0
456.0
504.0
526.0
482.0
443.0
521.0
525.0
464.0
450.0
537.0
523.0
462.0
460.0
543.0
525.0
466.0
477.0
551.0
513.0
452.0
490.0
544.0
505.0
461.0
507.0
537.0
490.0
458.0
532.0
540.0
477.0
461.0
544.0
531.0
470.0
463.0
539.0
520.0
467.0
474.0
546.0
522.0
464.0
486.0
541.0
507.0
459.0
502.0
550.0
502.0
458.0
524.0
556.0
520.0
483.0
538.0
523.0
474.0
460.0
536.0
523.0
460.0
454.0
539.0
516.0
449.0
470.0
543.0
512.0
450.0
485.0
539.0
496.0
443.0
536.0
651.0
706.0
749.0
804.0
632.0
371.0
313.0
497.0
582.0
502.0
456.0
530.0
530.0
467.0
467.0
544.0
532.0
462.0
484.0
544.0
518.0
469.0
511.0
544.0
504.0
470.0
538.0
561.0
506.0
473.0
553.0
561.0
508.0
494.0
571.0
560.0
513.0
517.0
594.0
583.0
521.0
527.0
592.0
580.0
522.0
542.0
595.0
565.0
514.0
554.0
576.0
523.0
482.0
540.0
541.0
484.0
460.0
539.0
532.0
472.0
462.0
541.0
517.0
461.0
479.0
557.0
506.0
451.0
489.0
548.0
493.0
447.0
505.0
546.0
504.0
455.0
519.0
539.0
493.0
463.0
531.0
525.0
473.0
465.0
549.0
530.0
468.0
476.0
556.0
528.0
457.0
493.0
562.0
504.0
445.0
500.0
553.0
510.0
456.0
513.0
547.0
501.0
465.0
544.0
562.0
505.0
473.0
542.0
529.0
476.0
468.0
538.0
509.0
466.0
481.0
536.0
507.0
456.0
493.0
545.0
508.0
456.0
505.0
538.0
493.0
465.0
585.0
705.0
754.0
762.0
737.0
525.0
345.0
373.0
541.0
558.0
484.0
468.0
529.0
510.0
464.0
490.0
548.0
512.0
466.0
499.0
552.0
507.0
453.0
527.0
550.0
492.0
465.0
541.0
548.0
487.0
469.0
562.0
551.0
490.0
486.0
570.0
555.0
497.0
513.0
579.0
557.0
504.0
546.0
594.0
551.0
503.0
561.0
595.0
541.0
489.0
552.0
563.0
504.0
470.0
549.0
534.0
468.0
458.0
535.0
511.0
457.0
463.0
537.0
506.0
447.0
471.0
532.0
494.0
451.0
502.0
542.0
481.0
432.0
510.0
541.0
493.0
449.0
516.0
526.0
477.0
456.0
532.0
523.0
461.0
459.0
533.0
512.0
458.0
472.0
541.0
507.0
452.0
485.0
538.0
492.0
447.0
498.0
537.0
490.0
448.0
509.0
521.0
471.0
451.0
538.0
537.0
472.0
471.0
548.0
531.0
483.0
499.0
558.0
505.0
448.0
488.0
541.0
489.0
432.0
496.0
533.0
482.0
438.0
519.0
530.0
486.0
447.0
519.0
519.0
468.0
457.0
546.0
595.0
647.0
748.0
855.0
689.0
383.0
317.0
470.0
549.0
495.0
495.0
523.0
493.0
454.0
519.0
537.0
482.0
452.0
539.0
545.0
482.0
451.0
535.0
523.0
473.0
478.0
551.0
527.0
474.0
489.0
556.0
526.0
473.0
509.0
567.0
524.0
487.0
540.0
571.0
539.0
505.0
574.0
583.0
530.0
511.0
598.0
615.0
532.0
487.0
567.0
563.0
495.0
490.0
546.0
512.0
452.0
480.0
539.0
489.0
432.0
486.0
535.0
484.0
431.0
502.0
535.0
483.0
439.0
513.0
524.0
469.0
456.0
533.0
514.0
463.0
467.0
541.0
510.0
450.0
465.0
536.0
510.0
461.0
494.0
533.0
492.0
451.0
505.0
535.0
489.0
451.0
521.0
528.0
477.0
453.0
530.0
525.0
480.0
467.0
538.0
516.0
459.0
472.0
551.0
508.0
451.0
479.0
545.0
520.0
459.0
508.0
553.0
515.0
479.0
540.0
544.0
482.0
446.0
528.0
526.0
463.0
444.0
529.0
524.0
461.0
457.0
535.0
511.0
459.0
480.0
542.0
504.0
447.0
494.0
589.0
639.0
693.0
815.0
793.0
513.0
299.0
403.0
540.0
531.0
475.0
518.0
517.0
472.0
470.0
548.0
526.0
468.0
476.0
549.0
525.0
465.0
500.0
540.0
503.0
462.0
516.0
554.0
506.0
468.0
542.0
560.0
505.0
474.0
557.0
570.0
514.0
497.0
578.0
573.0
514.0
521.0
601.0
576.0
520.0
542.0
605.0
574.0
512.0
563.0
578.0
517.0
467.0
525.0
546.0
487.0
447.0
530.0
533.0
471.0
443.0
525.0
519.0
461.0
458.0
538.0
511.0
453.0
469.0
538.0
508.0
456.0
493.0
540.0
505.0
450.0
495.0
535.0
488.0
441.0
522.0
542.0
486.0
452.0
531.0
532.0
475.0
462.0
542.0
529.0
473.0
474.0
550.0
516.0
454.0
486.0
542.0
505.0
452.0
499.0
539.0
500.0
464.0
520.0
539.0
485.0
453.0
538.0
539.0
482.0
465.0
552.0
529.0
466.0
478.0
553.0
525.0
459.0
486.0
565.0
531.0
472.0
513.0
553.0
500.0
453.0
514.0
538.0
480.0
450.0
526.0
533.0
479.0
457.0
540.0
529.0
471.0
466.0
549.0
525.0
457.0
483.0
599.0
675.0
722.0
791.0
758.0
494.0
309.0
405.0
560.0
555.0
470.0
500.0
530.0
499.0
464.0
544.0
542.0
478.0
465.0
551.0
544.0
467.0
469.0
558.0
544.0
476.0
495.0
556.0
517.0
470.0
520.0
569.0
529.0
485.0
545.0
573.0
524.0
491.0
574.0
591.0
533.0
511.0
593.0
581.0
522.0
528.0
607.0
586.0
515.0
525.0
585.0
554.0
490.0
503.0
553.0
506.0
451.0
508.0
531.0
475.0
449.0
522.0
530.0
473.0
445.0
529.0
534.0
466.0
446.0
531.0
530.0
467.0
471.0
535.0
517.0
461.0
486.0
546.0
502.0
456.0
508.0
545.0
494.0
448.0
520.0
552.0
482.0
443.0
527.0
535.0
485.0
460.0
536.0
526.0
469.0
471.0
540.0
510.0
461.0
492.0
545.0
503.0
450.0
491.0
547.0
509.0
453.0
514.0
543.0
487.0
456.0
542.0
546.0
477.0
452.0
538.0
537.0
484.0
475.0
556.0
537.0
463.0
469.0
552.0
522.0
449.0
480.0
542.0
509.0
463.0
501.0
537.0
497.0
457.0
515.0
539.0
487.0
457.0
530.0
563.0
582.0
677.0
851.0
820.0
560.0
355.0
414.0
498.0
506.0
516.0
552.0
507.0
457.0
506.0
551.0
501.0
450.0
518.0
558.0
499.0
460.0
542.0
551.0
486.0
473.0
558.0
547.0
493.0
481.0
562.0
547.0
490.0
505.0
575.0
549.0
493.0
531.0
580.0
551.0
510.0
567.0
595.0
548.0
514.0
595.0
610.0
546.0
500.0
587.0
598.0
523.0
491.0
564.0
532.0
469.0
477.0
544.0
518.0
461.0
479.0
537.0
499.0
449.0
497.0
540.0
500.0
451.0
507.0
531.0
489.0
456.0
526.0
530.0
477.0
463.0
540.0
532.0
469.0
465.0
546.0
529.0
466.0
477.0
549.0
517.0
457.0
495.0
548.0
509.0
454.0
510.0
550.0
507.0
458.0
515.0
543.0
495.0
459.0
531.0
538.0
478.0
463.0
548.0
535.0
470.0
480.0
554.0
523.0
463.0
487.0
558.0
537.0
476.0
510.0
549.0
509.0
462.0
523.0
540.0
484.0
458.0
544.0
544.0
485.0
457.0
531.0
526.0
479.0
482.0
549.0
516.0
464.0
516.0
654.0
716.0
745.0
783.0
674.0
432.0
332.0
465.0
561.0
518.0
466.0
535.0
541.0
484.0
466.0
543.0
540.0
486.0
479.0
545.0
516.0
474.0
491.0
557.0
529.0
475.0
504.0
561.0
522.0
470.0
527.0
572.0
524.0
480.0
551.0
573.0
524.0
498.0
581.0
592.0
529.0
509.0
604.0
593.0
529.0
520.0
586.0
570.0
518.0
529.0
581.0
536.0
473.0
513.0
551.0
498.0
446.0
504.0
535.0
486.0
448.0
519.0
528.0
467.0
448.0
535.0
528.0
467.0
455.0
550.0
527.0
448.0
460.0
544.0
518.0
440.0
477.0
543.0
502.0
451.0
506.0
544.0
491.0
448.0
519.0
533.0
477.0
450.0
533.0
526.0
465.0
450.0
539.0
526.0
467.0
458.0
528.0
513.0
460.0
483.0
535.0
491.0
440.0
490.0
536.0
489.0
445.0
508.0
528.0
473.0
446.0
533.0
535.0
474.0
452.0
543.0
533.0
464.0
457.0
533.0
510.0
452.0
460.0
525.0
495.0
445.0
481.0
532.0
493.0
432.0
486.0
530.0
488.0
442.0
506.0
540.0
544.0
622.0
809.0
851.0
659.0
409.0
384.0
435.0
481.0
517.0
542.0
487.0
437.0
485.0
545.0
500.0
451.0
495.0
540.0
474.0
438.0
527.0
538.0
480.0
445.0
533.0
544.0
481.0
460.0
543.0
539.0
482.0
480.0
565.0
546.0
488.0
510.0
573.0
544.0
498.0
544.0
592.0
535.0
497.0
578.0
598.0
546.0
510.0
563.0
569.0
517.0
489.0
559.0
536.0
466.0
461.0
539.0
503.0
443.0
461.0
536.0
507.0
444.0
480.0
528.0
486.0
438.0
499.0
536.0
487.0
451.0
508.0
529.0
476.0
440.0
528.0
532.0
469.0
450.0
530.0
519.0
461.0
469.0
541.0
514.0
453.0
481.0
547.0
510.0
449.0
492.0
539.0
496.0
451.0
510.0
528.0
488.0
449.0
525.0
533.0
479.0
455.0
536.0
522.0
463.0
458.0
539.0
529.0
466.0
472.0
542.0
521.0
467.0
505.0
562.0
518.0
450.0
496.0
540.0
497.0
442.0
502.0
527.0
469.0
450.0
521.0
522.0
468.0
463.0
538.0
514.0
457.0
460.0
534.0
529.0
534.0
684.0
843.0
800.0
566.0
405.0
393.0
443.0
482.0
542.0
532.0
474.0
448.0
532.0
540.0
466.0
458.0
546.0
520.0
460.0
472.0
554.0
524.0
458.0
478.0
554.0
527.0
467.0
503.0
561.0
522.0
475.0
530.0
567.0
517.0
483.0
569.0
566.0
509.0
510.0
606.0
579.0
516.0
514.0
612.0
588.0
509.0
517.0
599.0
566.0
502.0
522.0
561.0
511.0
449.0
499.0
540.0
484.0
437.0
505.0
532.0
476.0
440.0
529.0
529.0
462.0
448.0
534.0
520.0
467.0
468.0
542.0
526.0
448.0
466.0
535.0
509.0
455.0
494.0
546.0
498.0
449.0
498.0
531.0
489.0
459.0
531.0
528.0
472.0
454.0
538.0
530.0
474.0
471.0
537.0
517.0
456.0
480.0
562.0
503.0
437.0
476.0
550.0
520.0
452.0
495.0
544.0
512.0
454.0
521.0
556.0
510.0
480.0
554.0
540.0
472.0
459.0
540.0
518.0
446.0
459.0
545.0
511.0
453.0
481.0
542.0
503.0
445.0
494.0
543.0
493.0
440.0
523.0
601.0
649.0
719.0
840.0
735.0
439.0
297.0
448.0
561.0
516.0
478.0
538.0
515.0
454.0
478.0
551.0
513.0
456.0
490.0
553.0
518.0
473.0
518.0
541.0
496.0
463.0
541.0
556.0
499.0
468.0
561.0
564.0
496.0
486.0
576.0
562.0
500.0
517.0
602.0
559.0
502.0
550.0
614.0
572.0
502.0
549.0
611.0
572.0
507.0
565.0
584.0
520.0
474.0
547.0
547.0
481.0
452.0
535.0
531.0
463.0
458.0
543.0
515.0
454.0
482.0
551.0
502.0
435.0
486.0
546.0
507.0
449.0
506.0
542.0
495.0
459.0
531.0
543.0
483.0
460.0
540.0
531.0
473.0
468.0
546.0
531.0
465.0
472.0
555.0
527.0
462.0
493.0
550.0
512.0
459.0
514.0
550.0
502.0
455.0
527.0
555.0
488.0
452.0
537.0
546.0
493.0
470.0
549.0
540.0
486.0
498.0
573.0
537.0
465.0
481.0
549.0
508.0
451.0
493.0
544.0
498.0
447.0
524.0
536.0
477.0
454.0
535.0
537.0
476.0
450.0
540.0
567.0
578.0
687.0
866.0
806.0
509.0
335.0
421.0
503.0
496.0
510.0
537.0
503.0
462.0
514.0
552.0
501.0
463.0
536.0
546.0
485.0
455.0
544.0
551.0
492.0
470.0
554.0
544.0
483.0
489.0
571.0
547.0
481.0
505.0
583.0
546.0
483.0
539.0
588.0
539.0
498.0
580.0
605.0
547.0
499.0
576.0
589.0
533.0
515.0
596.0
574.0
504.0
494.0
565.0
536.0
470.0
479.0
548.0
507.0
452.0
487.0
540.0
494.0
446.0
504.0
542.0
493.0
451.0
514.0
532.0
483.0
457.0
537.0
531.0
465.0
455.0
548.0
527.0
457.0
464.0
543.0
518.0
461.0
484.0
544.0
506.0
454.0
508.0
549.0
491.0
443.0
520.0
555.0
496.0
447.0
531.0
535.0
471.0
457.0
542.0
525.0
469.0
473.0
548.0
526.0
474.0
506.0
575.0
524.0
449.0
483.0
551.0
498.0
437.0
497.0
539.0
484.0
441.0
517.0
531.0
470.0
453.0
548.0
533.0
455.0
440.0
539.0
546.0
541.0
655.0
840.0
827.0
586.0
387.0
389.0
450.0
484.0
538.0
541.0
469.0
438.0
527.0
545.0
479.0
448.0
532.0
535.0
479.0
460.0
542.0
547.0
469.0
449.0
547.0
534.0
474.0
486.0
552.0
519.0
468.0
516.0
570.0
524.0
481.0
541.0
572.0
527.0
493.0
569.0
584.0
530.0
506.0
594.0
583.0
519.0
516.0
593.0
570.0
499.0
484.0
552.0
529.0
467.0
480.0
526.0
487.0
438.0
490.0
533.0
480.0
434.0
503.0
521.0
466.0
443.0
521.0
520.0
454.0
453.0
542.0
519.0
447.0
459.0
548.0
524.0
443.0
463.0
544.0
506.0
441.0
484.0
534.0
492.0
445.0
506.0
529.0
479.0
451.0
523.0
524.0
473.0
457.0
536.0
518.0
458.0
452.0
537.0
530.0
464.0
467.0
538.0
511.0
452.0
483.0
549.0
499.0
447.0
512.0
559.0
516.0
462.0
528.0
537.0
479.0
443.0
519.0
513.0
457.0
449.0
530.0
510.0
449.0
465.0
550.0
515.0
448.0
478.0
543.0
503.0
452.0
531.0
669.0
735.0
755.0
752.0
560.0
341.0
331.0
524.0
581.0
497.0
442.0
523.0
531.0
475.0
466.0
542.0
518.0
459.0
480.0
552.0
520.0
470.0
496.0
540.0
500.0
447.0
523.0
565.0
503.0
460.0
541.0
560.0
504.0
479.0
563.0
565.0
507.0
498.0
583.0
574.0
512.0
524.0
599.0
566.0
510.0
546.0
607.0
556.0
498.0
550.0
577.0
517.0
455.0
518.0
534.0
483.0
451.0
524.0
521.0
469.0
454.0
531.0
513.0
457.0
460.0
540.0
510.0
454.0
475.0
540.0
505.0
447.0
500.0
544.0
492.0
449.0
509.0
542.0
483.0
439.0
523.0
539.0
486.0
448.0
529.0
528.0
470.0
457.0
544.0
525.0
461.0
474.0
542.0
514.0
460.0
495.0
545.0
495.0
445.0
508.0
549.0
490.0
447.0
524.0
547.0
495.0
475.0
554.0
547.0
487.0
470.0
544.0
523.0
458.0
455.0
528.0
509.0
455.0
479.0
542.0
504.0
442.0
488.0
550.0
501.0
445.0
502.0
531.0
483.0
482.0
662.0
777.0
767.0
696.0
600.0
413.0
340.0
447.0
598.0
548.0
447.0
467.0
553.0
524.0
456.0
485.0
543.0
508.0
456.0
507.0
548.0
498.0
455.0
529.0
556.0
498.0
458.0
543.0
544.0
497.0
482.0
567.0
544.0
484.0
502.0
581.0
560.0
501.0
526.0
594.0
565.0
509.0
558.0
605.0
556.0
511.0
576.0
594.0
540.0
496.0
561.0
556.0
496.0
468.0
557.0
524.0
452.0
454.0
547.0
515.0
450.0
465.0
540.0
504.0
448.0
485.0
537.0
496.0
447.0
513.0
539.0
484.0
448.0
527.0
541.0
479.0
450.0
531.0
528.0
476.0
472.0
552.0
525.0
459.0
464.0
554.0
512.0
452.0
490.0
547.0
510.0
451.0
501.0
552.0
503.0
450.0
516.0
542.0
488.0
455.0
538.0
542.0
482.0
470.0
558.0
542.0
475.0
487.0
580.0
552.0
474.0
482.0
545.0
502.0
451.0
493.0
538.0
499.0
448.0
511.0
542.0
484.0
447.0
530.0
548.0
482.0
451.0
537.0
528.0
491.0
549.0
741.0
827.0
767.0
600.0
456.0
380.0
407.0
523.0
586.0
507.0
443.0
502.0
554.0
503.0
456.0
527.0
550.0
493.0
460.0
548.0
553.0
486.0
467.0
553.0
545.0
486.0
485.0
570.0
546.0
486.0
511.0
571.0
535.0
487.0
530.0
586.0
546.0
502.0
566.0
594.0
544.0
514.0
594.0
601.0
546.0
520.0
600.0
590.0
527.0
508.0
576.0
545.0
481.0
489.0
551.0
516.0
459.0
492.0
547.0
497.0
449.0
504.0
543.0
488.0
446.0
522.0
540.0
482.0
458.0
537.0
538.0
477.0
463.0
549.0
529.0
466.0
472.0
555.0
525.0
466.0
495.0
552.0
527.0
460.0
492.0
549.0
508.0
459.0
516.0
535.0
492.0
463.0
535.0
536.0
485.0
471.0
552.0
542.0
477.0
475.0
562.0
540.0
469.0
491.0
575.0
548.0
484.0
496.0
543.0
514.0
466.0
511.0
535.0
485.0
454.0
532.0
530.0
473.0
455.0
546.0
538.0
475.0
464.0
545.0
529.0
472.0
521.0
691.0
778.0
769.0
703.0
559.0
373.0
355.0
499.0
593.0
524.0
442.0
497.0
553.0
491.0
446.0
533.0
540.0
482.0
465.0
546.0
535.0
481.0
484.0
560.0
528.0
471.0
497.0
570.0
530.0
472.0
510.0
569.0
533.0
481.0
538.0
577.0
534.0
484.0
563.0
588.0
523.0
498.0
596.0
588.0
520.0
510.0
601.0
584.0
510.0
510.0
578.0
545.0
471.0
488.0
548.0
504.0
450.0
494.0
537.0
485.0
436.0
509.0
541.0
497.0
434.0
509.0
534.0
465.0
442.0
538.0
530.0
464.0
458.0
538.0
520.0
456.0
472.0
540.0
506.0
447.0
491.0
542.0
495.0
447.0
512.0
543.0
486.0
447.0
529.0
534.0
471.0
452.0
537.0
532.0
472.0
457.0
523.0
519.0
467.0
474.0
542.0
512.0
454.0
496.0
562.0
528.0
472.0
509.0
538.0
491.0
454.0
515.0
520.0
465.0
445.0
527.0
525.0
470.0
459.0
521.0
516.0
462.0
461.0
539.0
511.0
442.0
479.0
587.0
645.0
694.0
801.0
779.0
498.0
281.0
386.0
547.0
537.0
461.0
501.0
507.0
475.0
461.0
537.0
519.0
458.0
470.0
546.0
507.0
453.0
482.0
548.0
505.0
449.0
495.0
557.0
512.0
455.0
508.0
561.0
514.0
465.0
538.0
560.0
503.0
484.0
569.0
569.0
514.0
511.0
593.0
572.0
502.0
527.0
613.0
554.0
485.0
520.0
581.0
529.0
469.0
498.0
529.0
485.0
439.0
499.0
523.0
473.0
431.0
506.0
521.0
461.0
434.0
518.0
511.0
457.0
453.0
533.0
507.0
442.0
466.0
538.0
504.0
443.0
473.0
526.0
492.0
445.0
494.0
530.0
476.0
432.0
513.0
537.0
474.0
441.0
525.0
527.0
463.0
448.0
536.0
524.0
456.0
461.0
540.0
509.0
450.0
479.0
542.0
490.0
435.0
490.0
543.0
494.0
446.0
516.0
550.0
503.0
470.0
538.0
528.0
464.0
452.0
535.0
515.0
441.0
448.0
540.0
507.0
438.0
462.0
536.0
501.0
444.0
486.0
542.0
492.0
426.0
494.0
571.0
603.0
666.0
823.0
803.0
535.0
311.0
396.0
512.0
513.0
483.0
527.0
503.0
456.0
483.0
554.0
506.0
440.0
487.0
549.0
503.0
461.0
507.0
540.0
499.0
455.0
520.0
544.0
490.0
462.0
549.0
554.0
488.0
474.0
565.0
564.0
501.0
505.0
582.0
562.0
506.0
529.0
589.0
559.0
514.0
557.0
598.0
547.0
504.0
569.0
582.0
517.0
478.0
542.0
537.0
472.0
453.0
539.0
528.0
460.0
450.0
539.0
519.0
457.0
457.0
535.0
506.0
449.0
493.0
541.0
494.0
441.0
501.0
540.0
489.0
444.0
517.0
537.0
479.0
455.0
537.0
534.0
467.0
454.0
542.0
527.0
468.0
469.0
541.0
516.0
454.0
486.0
555.0
512.0
462.0
497.0
530.0
494.0
454.0
527.0
538.0
477.0
450.0
534.0
542.0
479.0
455.0
551.0
543.0
472.0
477.0
570.0
548.0
488.0
491.0
544.0
503.0
454.0
498.0
553.0
495.0
430.0
494.0
542.0
495.0
454.0
520.0
530.0
477.0
459.0
542.0
533.0
462.0
465.0
601.0
695.0
734.0
770.0
745.0
493.0
304.0
393.0
578.0
562.0
457.0
489.0
544.0
505.0
458.0
506.0
538.0
502.0
472.0
538.0
534.0
480.0
468.0
554.0
541.0
479.0
478.0
557.0
535.0
479.0
495.0
570.0
538.0
489.0
524.0
577.0
545.0
500.0
573.0
588.0
534.0
499.0
577.0
599.0
550.0
517.0
596.0
591.0
526.0
513.0
583.0
555.0
485.0
494.0
559.0
516.0
454.0
483.0
542.0
504.0
453.0
500.0
535.0
489.0
454.0
528.0
542.0
475.0
439.0
523.0
529.0
483.0
462.0
543.0
532.0
468.0
466.0
549.0
526.0
463.0
478.0
547.0
520.0
462.0
508.0
558.0
503.0
454.0
523.0
547.0
506.0
476.0
536.0
538.0
480.0
464.0
548.0
539.0
479.0
471.0
551.0
533.0
477.0
484.0
556.0
528.0
467.0
505.0
570.0
524.0
466.0
523.0
572.0
539.0
489.0
534.0
541.0
506.0
470.0
534.0
526.0
473.0
473.0
548.0
526.0
463.0
471.0
554.0
528.0
468.0
492.0
557.0
511.0
458.0
536.0
668.0
734.0
764.0
786.0
627.0
391.0
344.0
509.0
582.0
513.0
471.0
546.0
533.0
476.0
487.0
555.0
528.0
474.0
492.0
561.0
524.0
467.0
503.0
565.0
526.0
465.0
521.0
565.0
518.0
473.0
543.0
565.0
518.0
487.0
566.0
568.0
516.0
508.0
598.0
573.0
494.0
519.0
613.0
573.0
504.0
534.0
608.0
564.0
505.0
545.0
577.0
520.0
471.0
535.0
545.0
481.0
441.0
519.0
531.0
470.0
447.0
531.0
519.0
464.0
467.0
538.0
505.0
453.0
479.0
539.0
497.0
439.0
482.0
544.0
499.0
443.0
503.0
538.0
487.0
448.0
523.0
535.0
484.0
453.0
534.0
528.0
468.0
465.0
545.0
520.0
462.0
472.0
560.0
518.0
444.0
476.0
533.0
495.0
451.0
497.0
539.0
496.0
453.0
516.0
536.0
491.0
461.0
532.0
539.0
481.0
472.0
555.0
543.0
491.0
491.0
548.0
507.0
453.0
477.0
541.0
501.0
449.0
489.0
530.0
481.0
438.0
507.0
542.0
481.0
441.0
517.0
533.0
477.0
460.0
592.0
690.0
735.0
767.0
735.0
491.0
306.0
370.0
561.0
559.0
463.0
469.0
532.0
505.0
453.0
484.0
536.0
489.0
446.0
514.0
533.0
485.0
461.0
535.0
532.0
477.0
461.0
548.0
539.0
479.0
485.0
557.0
536.0
477.0
503.0
576.0
542.0
491.0
540.0
594.0
545.0
498.0
561.0
582.0
555.0
515.0
571.0
583.0
533.0
504.0
573.0
550.0
482.0
474.0
545.0
511.0
449.0
465.0
530.0
496.0
447.0
480.0
534.0
486.0
434.0
489.0
537.0
496.0
433.0
506.0
528.0
469.0
444.0
529.0
525.0
467.0
457.0
540.0
520.0
457.0
472.0
548.0
517.0
452.0
474.0
543.0
507.0
450.0
490.0
543.0
506.0
448.0
507.0
547.0
498.0
451.0
519.0
528.0
473.0
452.0
545.0
530.0
468.0
460.0
535.0
519.0
458.0
473.0
547.0
518.0
459.0
498.0
553.0
516.0
469.0
529.0
555.0
495.0
451.0
535.0
536.0
462.0
440.0
537.0
541.0
461.0
442.0
540.0
525.0
452.0
464.0
545.0
519.0
452.0
477.0
551.0
564.0
615.0
767.0
859.0
695.0
413.0
367.0
458.0
507.0
504.0
544.0
519.0
476.0
476.0
551.0
523.0
463.0
463.0
554.0
534.0
466.0
483.0
556.0
522.0
468.0
509.0
563.0
517.0
470.0
531.0
562.0
521.0
481.0
551.0
563.0
514.0
497.0
585.0
569.0
508.0
504.0
606.0
591.0
519.0
521.0
600.0
581.0
521.0
540.0
591.0
546.0
485.0
533.0
560.0
496.0
448.0
517.0
536.0
474.0
442.0
530.0
523.0
459.0
453.0
527.0
514.0
454.0
464.0
536.0
515.0
456.0
476.0
546.0
513.0
454.0
496.0
545.0
498.0
452.0
519.0
543.0
494.0
445.0
525.0
545.0
489.0
458.0
543.0
536.0
479.0
467.0
547.0
525.0
459.0
478.0
547.0
505.0
462.0
502.0
550.0
497.0
450.0
509.0
556.0
504.0
452.0
523.0
546.0
491.0
458.0
540.0
542.0
487.0
475.0
561.0
559.0
504.0
493.0
551.0
519.0
457.0
479.0
538.0
503.0
452.0
494.0
542.0
505.0
459.0
517.0
537.0
487.0
454.0
535.0
535.0
476.0
477.0
624.0
719.0
745.0
756.0
713.0
477.0
312.0
410.0
596.0
565.0
447.0
473.0
553.0
519.0
453.0
511.0
549.0
498.0
459.0
536.0
550.0
489.0
456.0
551.0
553.0
491.0
479.0
558.0
544.0
491.0
503.0
576.0
545.0
491.0
524.0
583.0
542.0
497.0
540.0
598.0
554.0
502.0
573.0
606.0
552.0
516.0
594.0
598.0
533.0
513.0
592.0
569.0
493.0
483.0
560.0
528.0
456.0
483.0
552.0
512.0
457.0
489.0
552.0
508.0
442.0
505.0
544.0
501.0
457.0
534.0
543.0
485.0
460.0
548.0
540.0
479.0
475.0
555.0
531.0
474.0
482.0
557.0
530.0
467.0
499.0
552.0
517.0
470.0
511.0
553.0
523.0
467.0
514.0
539.0
497.0
477.0
547.0
541.0
477.0
465.0
557.0
544.0
475.0
471.0
555.0
534.0
471.0
493.0
567.0
535.0
485.0
529.0
568.0
502.0
450.0
524.0
554.0
499.0
447.0
517.0
530.0
479.0
455.0
535.0
530.0
476.0
472.0
551.0
526.0
464.0
472.0
575.0
634.0
686.0
792.0
819.0
587.0
353.0
393.0
513.0
517.0
479.0
532.0
539.0
497.0
471.0
531.0
520.0
475.0
474.0
548.0
531.0
478.0
483.0
556.0
533.0
474.0
497.0
560.0
523.0
462.0
512.0
572.0
523.0
478.0
549.0
578.0
521.0
486.0
568.0
572.0
513.0
493.0
583.0
584.0
517.0
508.0
607.0
584.0
513.0
524.0
591.0
544.0
476.0
512.0
556.0
505.0
449.0
499.0
538.0
495.0
446.0
508.0
525.0
477.0
443.0
514.0
524.0
475.0
451.0
524.0
511.0
462.0
477.0
544.0
503.0
445.0
476.0
546.0
504.0
438.0
490.0
546.0
496.0
445.0
511.0
529.0
483.0
447.0
527.0
524.0
466.0
456.0
541.0
525.0
459.0
457.0
540.0
523.0
451.0
460.0
535.0
511.0
445.0
477.0
540.0
510.0
445.0
498.0
535.0
490.0
454.0
537.0
555.0
487.0
445.0
519.0
526.0
458.0
442.0
525.0
508.0
448.0
458.0
530.0
497.0
441.0
466.0
528.0
